0
0
0
0
0
0
0
0
0
0
0
0
0
0
0
0
0
0
0
0
0
0
0
0
0
0
0
0
0
0
0
0
0
0
0
0
0
0
0
0
0
128
305
486
665
832
995
1156
1314
1454
1587
1710
1814
1919
2001
2089
2157
2218
2275
2320
2353
2382
2407
2418
2422
2427
2416
2413
2395
2371
2349
2319
2289
2258
2224
2187
2151
2119
2093
2047
2013
1970
1933
1905
1875
1839
1802
1777
1746
1723
1701
1680
1651
1637
1616
1600
1584
1570
1559
1535
1535
1529
1522
1520
1515
1512
1510
1506
1516
1522
1520
1521
1529
1535
1535
1535
1557
1556
1571
1581
1582
1584
1589
1595
1606
1602
1609
1615
1626
1621
1630
1628
1625
1630
1631
1635
1627
1633
1638
1639
1635
1625
1633
1633
1632
1629
1627
1622
1629
1622
1619
1627
1616
1617
1616
1609
1600
1604
1606
1607
1602
1614
1607
1613
1613
1617
1633
1639
1658
1678
1702
1722
1751
1794
1831
1862
1901
1944
1994
2030
2079
2117
2159
2199
2230
2267
2294
2327
2359
2375
2395
2407
2415
2423
2417
2415
2407
2399
2390
2383
2367
2351
2335
2327
2302
2289
2263
2237
2225
2203
2183
2159
2133
2128
2106
2094
2071
2047
2022
2006
1982
1962
1950
1935
1917
1899
1883
1860
1845
1829
1818
1802
1788
1779
1773
1761
1757
1750
1750
1745
1751
1745
1748
1750
1759
1758
1767
1772
1783
1781
1782
1789
1791
1801
1804
1802
1799
1805
1808
1811
1808
1808
1808
1810
1807
1805
1799
1791
1786
1775
1771
1761
1755
1754
1744
1741
1732
1724
1722
1717
1710
1698
1692
1691
1681
1678
1670
1663
1654
1645
1642
1634
1623
1622
1613
1610
1606
1605
1605
1606
1601
1602
1601
1603
1600
1600
1599
1600
1604
1601
1600
1604
1599
1600
1607
1600
1600
1605
1615
1613
1616
1616
1609
1611
1609
1610
1612
1612
1615
1617
1615
1615
1616
1620
1621
1616
1622
1620
1619
1626
1626
1616
1615
1618
1614
1613
1611
1602
1605
1602
1603
1598
1594
1595
1594
1598
1589
1589
1594
1592
1594
1605
1601
1617
1633
1644
1655
1675
1699
1726
1750
1781
1814
1859
1899
1936
1968
2003
2047
2096
2128
2161
2193
2227
2256
2271
2288
2302
2320
2329
2338
2332
2327
2321
2320
2299
2290
2273
2259
2241
2221
2197
2175
2165
2139
2123
2101
2077
2058
2031
2005
1982
1955
1941
1919
1895
1870
1851
1835
1819
1794
1776
1751
1744
1725
1703
1687
1675
1665
1657
1648
1643
1635
1632
1634
1623
1621
1625
1637
1644
1647
1650
1657
1667
1680
1687
1691
1693
1712
1712
1715
1722
1734
1737
1742
1744
1743
1745
1749
1750
1747
1745
1739
1744
1743
1734
1731
1725
1727
1717
1718
1712
1708
1703
1709
1696
1693
1690
1680
1670
1664
1655
1648
1648
1638
1628
1625
1619
1616
1614
1614
1604
1588
1590
1595
1584
1584
1580
1584
1577
1581
1580
1569
1575
1578
1571
1570
1578
1577
1578
1579
1577
1573
1579
1579
1584
1582
1584
1590
1598
1595
1598
1600
1614
1607
1603
1607
1602
1614
1613
1614
1614
1616
1616
1619
1621
1617
1622
1629
1631
1632
1629
1625
1635
1632
1631
1628
1628
1631
1632
1616
1616
1616
1618
1616
1616
1613
1605
1617
1619
1620
1629
1644
1653
1663
1673
1696
1712
1744
1770
1793
1820
1855
1893
1931
1961
1995
2021
2061
2096
2122
2147
2171
2197
2211
2226
2237
2243
2247
2253
2247
2241
2234
2227
2215
2205
2187
2170
2156
2135
2117
2097
2079
2066
2035
2011
1993
1979
1953
1936
1920
1904
1882
1872
1861
1837
1818
1805
1793
1779
1771
1750
1741
1733
1724
1712
1702
1690
1695
1683
1683
1679
1675
1680
1679
1680
1685
1694
1701
1700
1712
1715
1724
1735
1744
1749
1756
1759
1766
1774
1779
1782
1776
1791
1793
1791
1791
1789
1789
1792
1786
1780
1777
1782
1776
1773
1772
1770
1767
1762
1747
1745
1744
1738
1727
1718
1712
1707
1701
1691
1697
1687
1680
1680
1680
1673
1664
1658
1661
1659
1653
1654
1649
1648
1646
1649
1645
1647
1640
1637
1646
1641
1639
1647
1648
1648
1648
1648
1654
1648
1655
1651
1648
1657
1655
1655
1653
1646
1653
1648
1645
1644
1648
1644
1650
1652
1659
1649
1649
1649
1648
1645
1646
1653
1648
1646
1648
1647
1653
1657
1648
1649
1653
1660
1657
1664
1668
1680
1693
1701
1713
1729
1751
1782
1808
1835
1859
1888
1919
1954
1977
2003
2029
2065
2087
2107
2123
2141
2161
2163
2179
2189
2186
2187
2192
2183
2175
2170
2161
2153
2141
2128
2113
2105
2085
2075
2047
2036
2031
2011
1989
1970
1962
1949
1922
1903
1889
1871
1859
1842
1831
1814
1801
1791
1776
1762
1746
1730
1719
1709
1706
1696
1690
1684
1681
1680
1680
1679
1681
1687
1694
1686
1694
1705
1713
1722
1727
1734
1744
1750
1754
1753
1763
1769
1775
1778
1776
1781
1789
1791
1802
1798
1795
1791
1793
1787
1776
1776
1781
1774
1774
1766
1760
1759
1754
1747
1744
1738
1737
1729
1733
1719
1715
1723
1712
1707
1706
1697
1703
1695
1694
1680
1683
1682
1680
1678
1680
1670
1680
1675
1667
1669
1666
1667
1663
1661
1659
1664
1666
1673
1667
1665
1669
1667
1671
1678
1673
1670
1677
1679
1674
1670
1671
1677
1680
1678
1680
1678
1680
1680
1682
1680
1681
1683
1685
1685
1680
1680
1680
1679
1671
1671
1664
1673
1670
1669
1673
1679
1686
1699
1703
1714
1725
1745
1761
1789
1804
1831
1856
1882
1904
1935
1967
1994
2018
2046
2077
2102
2129
2149
2160
2175
2191
2205
2215
2213
2207
2207
2205
2199
2195
2182
2173
2157
2142
2128
2111
2096
2081
2067
2046
2030
2005
2000
1991
1969
1957
1939
1933
1918
1899
1888
1874
1859
1847
1840
1821
1802
1790
1775
1766
1750
1739
1733
1727
1727
1715
1712
1707
1710
1705
1699
1701
1705
1708
1711
1711
1712
1723
1732
1734
1742
1744
1750
1757
1756
1761
1771
1773
1777
1779
1780
1777
1781
1785
1779
1787
1787
1790
1793
1789
1790
1782
1781
1779
1776
1775
1769
1774
1766
1763
1758
1754
1754
1749
1744
1740
1733
1739
1733
1728
1729
1725
1724
1718
1709
1709
1706
1706
1709
1698
1699
1696
1695
1691
1690
1686
1683
1686
1693
1689
1683
1681
1683
1682
1679
1681
1678
1682
1683
1687
1685
1681
1683
1686
1685
1685
1687
1695
1695
1696
1691
1694
1689
1684
1685
1686
1682
1690
1692
1691
1693
1683
1686
1689
1687
1686
1680
1689
1687
1690
1689
1690
1700
1709
1718
1727
1739
1754
1775
1789
1813
1840
1871
1892
1923
1950
1972
2000
2028
2058
2079
2096
2124
2145
2160
2174
2183
2191
2199
2201
2202
2198
2191
2191
2181
2167
2159
2147
2139
2124
2113
2097
2089
2074
2047
2035
2021
2011
1999
1984
1969
1953
1943
1931
1919
1907
1889
1887
1870
1853
1842
1831
1822
1813
1803
1796
1777
1775
1770
1767
1754
1744
1744
1740
1744
1747
1744
1753
1755
1754
1757
1758
1773
1775
1767
1780
1779
1787
1790
1794
1792
1789
1794
1803
1797
1798
1797
1803
1806
1806
1799
1802
1806
1808
1799
1799
1795
1796
1792
1791
1791
1787
1779
1786
1777
1771
1767
1771
1766
1760
1751
1745
1747
1742
1735
1735
1728
1728
1725
1718
1717
1712
1712
1712
1711
1709
1707
1710
1711
1706
1703
1695
1701
1698
1700
1705
1695
1700
1705
1705
1705
1697
1702
1703
1703
1702
1702
1711
1710
1712
1712
1712
1712
1717
1712
1712
1706
1712
1712
1709
1705
1698
1701
1700
1699
1694
1692
1697
1697
1694
1698
1692
1695
1695
1698
1694
1693
1691
1690
1690
1693
1690
1701
1707
1707
1712
1719
1734
1747
1766
1782
1803
1829
1850
1875
1904
1932
1961
1991
2017
2035
2069
2091
2111
2128
2144
2155
2167
2183
2192
2194
2193
2192
2198
2183
2183
2175
2167
2144
2141
2126
2111
2101
2094
2090
2066
2055
2044
2034
2015
1999
1981
1966
1957
1945
1933
1919
1906
1898
1884
1875
1866
1856
1843
1840
1823
1808
1798
1798
1776
1767
1760
1760
1760
1751
1753
1744
1744
1747
1746
1747
1744
1749
1755
1750
1760
1757
1765
1767
1776
1781
1778
1789
1790
1793
1795
1793
1801
1803
1806
1808
1808
1811
1813
1808
1808
1798
1808
1808
1805
1805
1804
1799
1796
1793
1781
1779
1778
1776
1773
1770
1766
1762
1763
1757
1753
1744
1745
1742
1743
1737
1731
1729
1729
1728
1731
1725
1723
1723
1726
1718
1712
1719
1712
1712
1707
1706
1705
1707
1706
1699
1693
1695
1694
1696
1698
1691
1697
1697
1695
1695
1699
1698
1701
1699
1697
1693
1698
1698
1695
1697
1693
1700
1701
1699
1701
1695
1697
1701
1691
1711
1685
1691
1686
1686
1680
1680
1680
1685
1685
1686
1683
1691
1688
1689
1691
1685
1689
1697
1704
1696
1714
1727
1739
1751
1769
1780
1810
1826
1843
1863
1885
1914
1942
1965
1981
2001
2032
2047
2067
2090
2097
2117
2131
2128
2140
2142
2147
2143
2143
2135
2129
2122
2123
2112
2103
2086
2085
2071
2047
2032
2018
2009
2000
1981
1970
1953
1949
1938
1927
1914
1903
1894
1886
1872
1872
1853
1850
1840
1835
1822
1810
1802
1804
1791
1776
1770
1765
1755
1758
1758
1747
1747
1750
1744
1739
1737
1744
1753
1745
1754
1757
1764
1766
1767
1773
1777
1783
1793
1791
1798
1796
1804
1809
1814
1814
1811
1819
1817
1812
1810
1809
1811
1811
1808
1808
1807
1809
1808
1801
1785
1787
1781
1778
1776
1769
1762
1758
1760
1759
1746
1746
1742
1740
1734
1742
1731
1735
1738
1735
1730
1726
1728
1728
1722
1726
1718
1718
1722
1716
1723
1718
1719
1723
1725
1725
1719
1728
1729
1726
1726
1726
1728
1727
1727
1722
1728
1725
1726
1726
1717
1718
1719
1725
1722
1724
1724
1735
1735
1728
1721
1721
1728
1729
1730
1726
1730
1730
1735
1731
1731
1725
1728
1735
1731
1731
1728
1731
1742
1738
1744
1747
1759
1771
1776
1792
1803
1814
1839
1857
1879
1887
1909
1936
1957
1979
1999
2022
2043
2064
2077
2095
2106
2119
2128
2131
2131
2143
2145
2143
2143
2138
2133
2129
2115
2103
2091
2082
2077
2064
2047
2032
2025
2013
1999
1983
1970
1955
1947
1936
1922
1911
1904
1895
1885
1872
1863
1855
1851
1839
1823
1814
1809
1809
1798
1792
1782
1781
1779
1776
1776
1766
1766
1765
1765
1762
1762
1767
1776
1775
1775
1774
1777
1786
1787
1790
1791
1799
1808
1813
1811
1811
1814
1822
1826
1826
1822
1826
1823
1823
1823
1813
1819
1819
1819
1811
1812
1810
1815
1814
1810
1805
1807
1803
1795
1796
1788
1789
1791
1781
1779
1775
1776
1778
1775
1766
1755
1758
1761
1763
1749
1747
1747
1748
1745
1743
1741
1743
1744
1743
1742
1730
1731
1729
1738
1733
1723
1727
1739
1736
1733
1729
1742
1731
1735
1728
1727
1726
1729
1732
1731
1733
1744
1731
1734
1738
1729
1733
1739
1738
1739
1739
1745
1746
1744
1744
1744
1747
1747
1744
1749
1744
1747
1750
1759
1758
1764
1775
1783
1793
1808
1815
1841
1867
1883
1901
1922
1949
1969
1995
2021
2046
2070
2097
2117
2128
2143
2161
2178
2182
2189
2191
2197
2202
2199
2192
2187
2182
2171
2166
2151
2138
2127
2119
2110
2095
2075
2064
2059
2046
2029
2011
2007
2000
1990
1973
1965
1957
1954
1941
1934
1919
1915
1910
1894
1875
1867
1862
1854
1843
1831
1822
1815
1810
1808
1802
1791
1793
1789
1786
1781
1781
1780
1789
1787
1789
1785
1791
1791
1804
1798
1799
1814
1819
1819
1826
1822
1839
1837
1835
1839
1839
1836
1840
1845
1839
1840
1842
1841
1841
1840
1837
1830
1834
1829
1823
1820
1813
1810
1801
1803
1792
1796
1790
1787
1786
1776
1777
1779
1773
1766
1758
1763
1756
1749
1751
1746
1750
1748
1744
1744
1739
1741
1738
1734
1734
1735
1729
1737
1725
1729
1721
1725
1725
1722
1723
1716
1723
1726
1722
1725
1724
1729
1738
1743
1740
1742
1744
1745
1743
1744
1744
1738
1741
1744
1744
1741
1744
1744
1744
1741
1729
1742
1740
1741
1730
1726
1734
1731
1735
1728
1729
1730
1737
1744
1746
1759
1771
1783
1794
1809
1831
1856
1875
1907
1930
1961
1993
2023
2047
2081
2111
2128
2158
2174
2195
2206
2229
2243
2255
2256
2259
2263
2262
2256
2250
2241
2224
2224
2213
2202
2183
2173
2160
2143
2133
2119
2106
2095
2084
2071
2047
2035
2032
2018
2007
1989
1975
1975
1961
1949
1935
1926
1924
1906
1898
1885
1879
1872
1861
1847
1834
1830
1823
1816
1815
1806
1804
1796
1794
1793
1793
1791
1791
1783
1794
1796
1802
1805
1806
1810
1808
1818
1824
1829
1834
1838
1840
1847
1847
1854
1852
1859
1863
1857
1865
1861
1859
1865
1857
1855
1852
1846
1849
1843
1840
1827
1827
1823
1819
1813
1803
1803
1803
1795
1781
1775
1775
1776
1776
1766
1759
1751
1754
1744
1744
1741
1731
1743
1735
1738
1730
1729
1734
1730
1731
1728
1736
1738
1729
1723
1723
1728
1728
1727
1723
1724
1721
1724
1727
1727
1725
1719
1730
1726
1725
1726
1721
1722
1719
1713
1712
1728
1719
1720
1715
1719
1714
1723
1715
1723
1718
1722
1725
1727
1725
1727
1726
1729
1728
1727
1723
1718
1722
1721
1718
1719
1723
1734
1734
1743
1743
1754
1765
1776
1798
1807
1834
1855
1882
1905
1934
1968
2001
2032
2067
2094
2125
2151
2179
2198
2209
2238
2253
2267
2271
2277
2288
2295
2289
2288
2287
2277
2279
2263
2258
2237
2224
2219
2197
2189
2166
2155
2140
2125
2121
2097
2089
2080
2067
2055
2034
2025
2019
2007
1998
1983
1972
1968
1953
1941
1923
1915
1905
1893
1886
1872
1863
1855
1847
1839
1824
1824
1820
1812
1807
1807
1803
1806
1803
1802
1799
1808
1808
1809
1812
1815
1815
1822
1823
1824
1823
1827
1835
1837
1834
1837
1833
1837
1833
1834
1835
1831
1835
1833
1830
1826
1825
1823
1823
1813
1808
1803
1794
1796
1782
1779
1774
1770
1776
1759
1754
1749
1747
1748
1747
1745
1739
1743
1741
1735
1732
1737
1741
1730
1731
1728
1729
1729
1723
1722
1716
1717
1725
1725
1723
1718
1719
1729
1728
1726
1721
1725
1723
1727
1723
1719
1728
1733
1723
1723
1714
1723
1727
1718
1725
1712
1714
1722
1712
1712
1706
1711
1717
1713
1714
1710
1711
1711
1712
1712
1705
1708
1710
1710
1701
1703
1704
1702
1705
1701
1699
1701
1705
1695
1700
1694
1693
1703
1700
1700
1699
1704
1714
1722
1726
1739
1757
1770
1783
1803
1824
1854
1877
1907
1927
1959
1987
2017
2061
2083
2114
2143
2171
2201
2215
2229
2251
2273
2279
2288
2289
2293
2298
2291
2288
2274
2267
2257
2245
2224
2203
2192
2175
2160
2145
2123
2115
2096
2093
2072
2058
2047
2033
2022
2013
1995
1991
1983
1981
1966
1950
1937
1926
1908
1899
1884
1876
1867
1862
1847
1829
1817
1809
1808
1797
1788
1780
1777
1775
1770
1774
1772
1776
1778
1781
1776
1776
1788
1790
1794
1796
1805
1811
1814
1811
1822
1827
1836
1841
1840
1840
1842
1851
1843
1841
1839
1838
1840
1831
1826
1812
1817
1815
1814
1806
1802
1802
1799
1796
1782
1776
1775
1782
1769
1757
1761
1750
1749
1739
1740
1732
1733
1740
1725
1718
1713
1718
1721
1713
1713
1709
1707
1707
1712
1709
1698
1707
1707
1697
1702
1695
1694
1696
1700
1703
1699
1698
1705
1700
1701
1700
1695
1702
1706
1712
1711
1712
1718
1723
1717
1712
1721
1715
1715
1716
1712
1711
1712
1711
1712
1709
1703
1710
1709
1700
1702
1706
1707
1707
1703
1705
1705
1710
1703
1706
1708
1712
1712
1711
1712
1712
1710
1712
1714
1718
1722
1730
1742
1746
1758
1777
1795
1820
1841
1866
1882
1921
1958
1982
2010
2035
2069
2103
2129
2153
2167
2195
2219
2226
2237
2239
2247
2255
2255
2255
2251
2247
2239
2233
2207
2199
2179
2178
2160
2142
2130
2111
2105
2087
2076
2064
2047
2033
2014
2003
1987
1983
1974
1963
1953
1931
1922
1921
1904
1893
1879
1862
1861
1841
1835
1819
1808
1803
1790
1783
1776
1776
1776
1776
1763
1759
1767
1759
1767
1769
1762
1771
1776
1776
1781
1779
1780
1793
1791
1798
1799
1808
1808
1810
1813
1812
1817
1821
1821
1828
1820
1826
1826
1821
1821
1816
1809
1810
1808
1799
1792
1798
1790
1779
1779
1764
1766
1770
1766
1753
1744
1744
1744
1735
1731
1727
1719
1727
1714
1712
1706
1712
1713
1707
1702
1708
1707
1707
1709
1703
1696
1710
1703
1709
1706
1698
1701
1700
1701
1698
1693
1695
1697
1699
1694
1691
1691
1696
1691
1692
1685
1687
1691
1682
1690
1690
1692
1687
1693
1691
1687
1693
1698
1697
1697
1692
1696
1698
1698
1697
1702
1701
1712
1710
1711
1710
1712
1714
1712
1712
1713
1714
1728
1717
1715
1713
1714
1715
1717
1711
1728
1709
1712
1709
1712
1705
1712
1727
1726
1743
1747
1765
1783
1802
1823
1841
1873
1906
1927
1948
1974
2009
2041
2065
2090
2117
2145
2165
2192
2199
2214
2226
2239
2247
2246
2246
2242
2242
2235
2225
2214
2202
2194
2181
2167
2157
2137
2126
2107
2095
2079
2064
2046
2035
2023
2017
2003
2001
1990
1970
1968
1958
1951
1939
1933
1921
1909
1905
1887
1879
1866
1855
1851
1839
1834
1817
1810
1810
1793
1787
1776
1774
1766
1757
1757
1757
1758
1770
1765
1769
1774
1777
1785
1783
1793
1800
1797
1808
1811
1809
1817
1808
1820
1822
1825
1822
1829
1830
1827
1835
1830
1826
1832
1830
1821
1812
1808
1808
1805
1799
1797
1789
1791
1779
1780
1776
1774
1770
1763
1754
1754
1746
1750
1741
1733
1730
1723
1729
1721
1717
1718
1718
1714
1710
1708
1702
1702
1712
1707
1699
1699
1711
1708
1702
1700
1708
1709
1712
1709
1712
1705
1709
1712
1712
1712
1709
1713
1712
1712
1712
1703
1706
1712
1712
1712
1714
1712
1718
1712
1712
1709
1709
1712
1713
1710
1710
1712
1718
1712
1715
1713
1718
1718
1713
1718
1712
1712
1717
1714
1715
1712
1712
1713
1712
1715
1709
1711
1712
1712
1707
1708
1711
1709
1709
1702
1707
1703
1712
1717
1718
1731
1741
1757
1770
1792
1810
1830
1860
1887
1923
1946
1968
1999
2023
2059
2083
2113
2142
2158
2180
2193
2207
2225
2231
2237
2239
2239
2239
2231
2225
2221
2207
2199
2192
2185
2165
2153
2143
2128
2111
2102
2086
2079
2064
2064
2027
2019
2011
2000
1987
1979
1969
1967
1949
1945
1926
1919
1911
1899
1889
1871
1857
1847
1839
1826
1808
1803
1794
1783
1781
1777
1771
1771
1766
1758
1757
1760
1760
1765
1765
1771
1778
1785
1786
1791
1790
1799
1807
1813
1830
1814
1817
1824
1825
1823
1819
1822
1829
1823
1829
1818
1821
1822
1817
1819
1808
1799
1803
1803
1797
1791
1790
1783
1784
1775
1769
1766
1758
1763
1756
1749
1746
1747
1744
1732
1730
1730
1733
1726
1735
1727
1727
1727
1722
1715
1713
1712
1714
1712
1712
1711
1712
1712
1712
1711
1703
1712
1712
1712
1709
1703
1706
1710
1707
1707
1702
1706
1710
1709
1709
1712
1713
1718
1712
1713
1721
1715
1722
1720
1725
1723
1726
1729
1723
1719
1717
1717
1722
1722
1719
1721
1714
1727
1719
1722
1718
1717
1721
1718
1716
1717
1713
1720
1720
1715
1714
1711
1712
1712
1715
1712
1711
1712
1715
1712
1713
1714
1723
1729
1727
1741
1743
1760
1765
1779
1795
1807
1835
1855
1873
1904
1935
1963
1989
2023
2043
2077
2103
2127
2150
2160
2178
2195
2203
2207
2213
2207
2211
2207
2198
2198
2190
2191
2163
2151
2139
2128
2113
2096
2086
2066
2047
2033
2017
2002
1995
1981
1969
1968
1955
1941
1929
1925
1919
1905
1892
1877
1882
1860
1844
1834
1830
1826
1818
1809
1799
1794
1793
1777
1769
1763
1758
1758
1758
1751
1746
1749
1754
1755
1758
1764
1765
1776
1772
1777
1786
1787
1796
1795
1805
1807
1807
1809
1818
1817
1818
1822
1819
1816
1827
1818
1819
1824
1820
1821
1818
1816
1820
1814
1811
1805
1803
1802
1791
1786
1782
1780
1783
1777
1774
1770
1767
1757
1755
1746
1744
1741
1739
1733
1731
1728
1719
1723
1715
1712
1709
1707
1707
1709
1706
1705
1700
1704
1703
1702
1710
1709
1709
1717
1712
1712
1716
1725
1727
1728
1721
1730
1730
1729
1728
1726
1713
1726
1723
1722
1722
1718
1731
1728
1728
1725
1726
1728
1725
1728
1728
1718
1725
1721
1721
1722
1717
1717
1725
1719
1718
1719
1729
1726
1719
1718
1719
1722
1729
1727
1722
1723
1725
1724
1715
1714
1714
1724
1726
1724
1729
1730
1747
1747
1760
1775
1792
1813
1823
1842
1867
1888
1919
1941
1968
1993
2013
2047
2081
2096
2118
2132
2157
2166
2179
2190
2192
2198
2198
2197
2192
2194
2189
2175
2160
2155
2138
2130
2114
2102
2091
2069
2064
2039
2026
2010
2000
1994
1979
1966
1958
1942
1936
1934
1922
1911
1901
1899
1894
1875
1872
1859
1851
1842
1835
1823
1808
1807
1795
1789
1777
1775
1776
1763
1770
1760
1760
1757
1757
1756
1755
1761
1772
1767
1776
1779
1775
1791
1783
1796
1797
1797
1808
1807
1813
1810
1807
1817
1815
1826
1823
1820
1827
1824
1829
1826
1818
1820
1819
1813
1819
1808
1811
1808
1806
1798
1791
1794
1784
1778
1771
1762
1769
1762
1759
1757
1746
1755
1744
1743
1743
1741
1741
1738
1735
1739
1731
1739
1728
1731
1725
1719
1722
1718
1712
1716
1714
1714
1712
1712
1711
1712
1719
1716
1722
1725
1719
1725
1727
1731
1730
1724
1729
1729
1731
1726
1730
1730
1739
1731
1735
1733
1739
1738
1733
1730
1725
1731
1722
1722
1728
1719
1722
1727
1727
1729
1724
1728
1729
1727
1727
1726
1730
1733
1731
1724
1725
1734
1734
1727
1727
1722
1732
1739
1735
1734
1740
1740
1745
1744
1748
1760
1776
1792
1804
1815
1827
1854
1872
1903
1919
1942
1973
2003
2026
2059
2078
2103
2113
2130
2147
2155
2166
2187
2191
2191
2183
2191
2192
2183
2178
2170
2159
2150
2141
2127
2115
2115
2096
2079
2065
2047
2035
2028
2015
2000
1987
1981
1975
1959
1952
1935
1931
1921
1909
1902
1889
1886
1879
1872
1862
1850
1842
1840
1825
1818
1808
1809
1794
1791
1778
1778
1776
1776
1773
1764
1761
1774
1775
1776
1779
1776
1801
1794
1797
1794
1794
1808
1811
1812
1821
1813
1822
1830
1834
1839
1838
1839
1840
1840
1831
1831
1838
1827
1824
1822
1812
1824
1824
1818
1811
1809
1811
1803
1793
1786
1783
1781
1784
1776
1772
1764
1763
1763
1755
1749
1744
1747
1744
1803
1788
1725
1790
1803
1786
1732
1778
1803
1763
1769
1760
1753
1746
1750
1744
1739
1745
1735
1734
1726
1719
1720
1725
1726
1715
1713
1712
1717
1718
1714
1713
1713
1719
1723
1717
1723
1718
1725
1728
1730
1724
1729
1731
1731
1734
1735
1726
1735
1735
1739
1738
1730
1735
1742
1740
1734
1735
1739
1734
1732
1733
1735
1735
1741
1737
1735
1735
1733
1741
1738
1735
1739
1735
1739
1738
1738
1739
1744
1747
1750
1751
1754
1766
1776
1789
1802
1818
1834
1855
1879
1900
1919
1946
1974
2000
2020
2039
2075
2096
2112
2128
2141
2158
2167
2178
2187
2186
2191
2192
2190
2188
2173
2169
2165
2149
2142
2128
2113
2103
2096
2083
2064
2061
2043
2030
2011
1998
1994
1986
1979
1966
1953
1947
1936
1931
1915
1907
1904
1901
1890
1877
1872
1861
1854
1842
1831
1821
1819
1819
1807
1796
1790
1785
1789
1783
1783
1776
1781
1785
1785
1778
1782
1790
1798
1797
1805
1795
1805
1809
1809
1814
1811
1821
1823
1825
1826
1825
1825
1825
1825
1827
1827
1829
1835
1830
1831
1823
1829
1826
1822
1818
1814
1811
1812
1805
1805
1797
1799
1795
1793
1781
1783
1777
1776
1778
1771
1773
1766
1767
1763
1755
1744
1748
1751
1744
1744
1739
1744
1746
1743
1743
1733
1739
1742
1737
1732
1729
1738
1739
1739
1742
1729
1734
1742
1743
1734
1735
1741
1744
1744
1743
1741
1741
1739
1741
1742
1734
1742
1737
1744
1734
1738
1739
1744
1744
1744
1743
1744
1746
1746
1745
1744
1744
1746
1744
1741
1744
1745
1748
1745
1744
1744
1743
1744
1744
1749
1743
1741
1741
1741
1735
1728
1738
1738
1728
1727
1727
1733
1735
1734
1740
1742
1749
1758
1771
1776
1787
1803
1827
1838
1856
1873
1904
1935
1952
1984
2000
2026
2063
2082
2098
2111
2128
2161
2158
2163
2166
2179
2185
2183
2180
2177
2174
2167
2159
2155
2141
2133
2128
2112
2096
2079
2069
2059
2037
2027
2006
1999
1999
1975
1968
1955
1951
1942
1933
1922
1911
1904
1897
1883
1871
1861
1857
1853
1838
1834
1819
1817
1814
1811
1797
1789
1787
1787
1779
1774
1770
1774
1773
1773
1760
1767
1774
1779
1787
1794
1795
1801
1809
1816
1813
1825
1831
1839
1838
1841
1842
1838
1840
1840
1840
1835
1839
1845
1837
1839
1830
1830
1831
1826
1819
1815
1819
1813
1813
1799
1802
1799
1797
1797
1787
1777
1776
1778
1776
1774
1760
1757
1767
1758
1758
1754
1751
1753
1750
1755
1745
1749
1750
1750
1745
1744
1739
1739
1737
1743
1742
1744
1741
1744
1743
1744
1740
1741
1743
1741
1733
1741
1744
1744
1741
1732
1738
1744
1733
1742
1739
1739
1744
1740
1737
1735
1738
1743
1744
1741
1744
1743
1744
1741
1743
1742
1743
1743
1743
1743
1741
1737
1744
1740
1744
1744
1737
1739
1742
1744
1741
1735
1741
1734
1738
1742
1742
1744
1748
1744
1745
1754
1760
1765
1779
1788
1799
1811
1827
1847
1859
1884
1915
1935
1953
1977
2001
2027
2047
2075
2083
2109
2123
2138
2150
2153
2160
2171
2170
2179
2170
2170
2167
2159
2146
2135
2130
2115
2101
2087
2077
2062
2038
2029
2014
2000
1983
1983
1971
1965
1948
1945
1936
1924
1914
1903
1897
1889
1885
1874
1860
1857
1853
1843
1840
1827
1813
1817
1807
1807
1803
1796
1802
1794
1790
1792
1791
1791
1794
1793
1791
1797
1803
1808
1808
1811
1821
1827
1826
1829
1838
1840
1845
1845
1847
1849
1850
1849
1854
1851
1845
1843
1843
1845
1842
1836
1834
1829
1830
1829
1819
1824
1817
1810
1808
1803
1795
1791
1793
1787
1779
1779
1781
1772
1776
1771
1773
1766
1764
1762
1760
1757
1756
1754
1749
1748
1744
1749
1748
1746
1744
1744
1745
1744
1740
1743
1744
1746
1744
1744
1744
1742
1742
1742
1743
1740
1738
1744
1741
1743
1744
1743
1748
1747
1749
1748
1744
1746
1745
1744
1739
1747
1747
1751
1744
1742
1748
1745
1749
1743
1741
1744
1753
1743
1747
1744
1744
1751
1744
1745
1744
1737
1744
1743
1745
1742
1743
1747
1746
1750
1760
1762
1774
1780
1796
1802
1817
1840
1853
1873
1893
1915
1946
1963
1986
2005
2026
2059
2071
2094
2103
2117
2129
2139
2147
2149
2155
2154
2159
2147
2147
2143
2143
2131
2122
2112
2099
2096
2090
2089
2071
2063
2047
2045
2033
2013
2011
2007
2000
1991
1975
1970
1967
1955
1942
1934
1927
1922
1907
1900
1888
1885
1876
1867
1867
1852
1840
1835
1827
1822
1813
1807
1805
1803
1798
1793
1786
1794
1790
1791
1785
1790
1793
1793
1796
1796
1797
1811
1818
1819
1819
1819
1831
1822
1828
1837
1827
1835
1839
1840
1834
1840
1840
1832
1840
1831
1834
1837
1837
1827
1826
1821
1819
1811
1808
1807
1806
1806
1802
1791
1782
1788
1790
1779
1776
1769
1767
1775
1763
1759
1753
1755
1758
1751
1748
1762
1744
1744
1745
1743
1742
1739
1746
1744
1744
1744
1742
1743
1735
1738
1739
1731
1741
1734
1731
1739
1738
1742
1737
1735
1739
1744
1744
1746
1744
1745
1747
1746
1745
1747
1747
1749
1762
1759
1754
1750
1751
1754
1749
1745
1744
1744
1749
1749
1742
1744
1744
1746
1747
1744
1741
1739
1745
1747
1743
1738
1740
1744
1744
1742
1746
1746
1759
1763
1767
1772
1785
1797
1809
1824
1840
1869
1887
1905
1927
1952
1966
1997
2027
2043
2066
2089
2111
2118
2128
2139
2145
2162
2167
2165
2161
2160
2162
2151
2148
2142
2128
2128
2113
2111
2092
2086
2078
2069
2057
2039
2031
2019
2013
2004
1991
1988
1986
1979
1968
1965
1954
1955
1945
1942
1930
1923
1919
1909
1898
1894
1882
1872
1869
1849
1840
1834
1824
1819
1817
1815
1812
1809
1810
1806
1798
1798
1798
1797
1801
1796
1795
1801
1806
1811
1806
1809
1821
1823
1823
1821
1827
1834
1838
1840
1840
1840
1840
1840
1840
1840
1840
1840
1841
1834
1831
1823
1830
1827
1821
1813
1814
1819
1809
1808
1808
1803
1794
1799
1793
1786
1776
1781
1782
1775
1766
1760
1761
1765
1762
1756
1755
1753
1758
1755
1751
1750
1759
1751
1745
1747
1749
1744
1744
1744
1744
1741
1742
1739
1742
1744
1735
1743
1743
1740
1741
1739
1738
1744
1744
1744
1745
1750
1744
1749
1747
1745
1745
1750
1743
1744
1739
1745
1743
1742
1744
1739
1749
1744
1738
1741
1744
1745
1743
1739
1741
1744
1744
1745
1743
1743
1744
1743
1744
1742
1744
1744
1744
1744
1746
1743
1746
1747
1746
1746
1744
1751
1763
1769
1781
1783
1791
1814
1830
1850
1875
1888
1920
1939
1966
1986
2006
2035
2059
2079
2096
2113
2128
2138
2155
2151
2162
2165
2166
2163
2160
2160
2151
2146
2135
2128
2126
2119
2111
2099
2087
2075
2065
2064
2045
2030
2026
2010
2007
2001
1997
1987
1984
1977
1968
1955
1951
1945
1938
1934
1923
1917
1904
1903
1888
1878
1866
1865
1858
1842
1844
1835
1829
1821
1813
1810
1802
1809
1800
1806
1806
1806
1808
1808
1812
1813
1813
1822
1827
1828
1825
1825
1834
1831
1830
1831
1830
1836
1839
1838
1834
1834
1834
1831
1829
1832
1830
1828
1827
1825
1813
1808
1815
1815
1811
1808
1807
1807
1804
1797
1791
1791
1786
1789
1784
1776
1776
1779
1772
1771
1761
1755
1755
1753
1754
1748
1744
1753
1746
1744
1744
1739
1743
1743
1746
1744
1742
1743
1744
1745
1750
1744
1748
1744
1744
1744
1741
1746
1744
1743
1741
1742
1749
1745
1748
1747
1741
1739
1744
1744
1745
1743
1746
1751
1749
1751
1747
1750
1751
1745
1747
1739
1747
1751
1743
1744
1734
1741
1738
1743
1734
1733
1733
1735
1738
1734
1727
1737
1729
1733
1728
1732
1729
1735
1733
1738
1731
1743
1744
1739
1742
1739
1750
1751
1754
1761
1774
1781
1793
1808
1827
1840
1863
1883
1922
1929
1951
1969
2001
2026
2043
2063
2089
2109
2114
2126
2138
2144
2151
2159
2157
2159
2160
2160
2157
2150
2140
2131
2126
2113
2103
2090
2079
2070
2063
2042
2032
2027
2015
2007
1999
1985
1987
1975
1969
1962
1951
1953
1941
1934
1922
1909
1905
1898
1885
1874
1866
1858
1856
1853
1841
1829
1831
1825
1825
1822
1814
1808
1808
1811
1808
1808
1808
1813
1810
1812
1815
1823
1829
1826
1831
1823
1827
1837
1840
1834
1839
1841
1841
1846
1839
1836
1839
1842
1843
1840
1837
1837
1842
1833
1827
1823
1817
1822
1819
1803
1805
1809
1803
1803
1801
1787
1788
1801
1787
1790
1776
1776
1776
1776
1771
1763
1769
1764
1751
1762
1755
1751
1757
1755
1757
1751
1750
1753
1749
1744
1744
1744
1744
1744
1744
1744
1747
1742
1744
1743
1744
1741
1741
1744
1744
1737
1741
1743
1744
1743
1744
1746
1755
1751
1754
1750
1755
1759
1759
1756
1749
1755
1751
1750
1746
1744
1742
1744
1744
1747
1745
1747
1747
1747
1744
1738
1749
1744
1744
1744
1741
1748
1747
1746
1746
1744
1746
1749
1749
1751
1751
1744
1761
1754
1760
1759
1775
1783
1792
1802
1809
1833
1843
1862
1876
1898
1923
1951
1968
1988
2003
2022
2047
2065
2080
2091
2099
2116
2123
2127
2128
2133
2137
2132
2131
2127
2128
2119
2112
2103
2090
2082
2079
2067
2047
2032
2027
2018
2005
2000
1983
1982
1975
1966
1951
1941
1943
1936
1921
1911
1904
1892
1888
1883
1870
1856
1853
1850
1838
1831
1821
1815
1813
1808
1801
1791
1791
1794
1783
1786
1776
1786
1791
1793
1799
1794
1805
1808
1808
1812
1814
1813
1822
1827
1834
1838
1840
1840
1840
1835
1842
1838
1845
1841
1841
1835
1840
1842
1841
1837
1826
1830
1831
1831
1825
1819
1817
1815
1810
1807
1802
1795
1795
1789
1783
1778
1777
1776
1769
1762
1755
1757
1759
1744
1746
1748
1747
1750
1746
1751
1744
1747
1747
1747
1744
1744
1744
1758
1747
1754
1753
1758
1759
1759
1762
1753
1751
1759
1754
1751
1757
1760
1759
1760
1755
1755
1751
1759
1755
1750
1752
1751
1760
1750
1744
1747
1745
1750
1744
1738
1741
1744
1744
1744
1744
1743
1741
1744
1742
1734
1731
1743
1743
1740
1730
1730
1733
1739
1741
1740
1735
1743
1744
1745
1741
1740
1744
1744
1747
1750
1760
1769
1779
1789
1800
1803
1822
1840
1855
1871
1882
1905
1930
1955
1966
1986
2003
2031
2047
2069
2091
2101
2117
2130
2141
2142
2145
2160
2155
2145
2141
2139
2134
2128
2117
2111
2096
2095
2083
2080
2067
2062
2047
2035
2032
2017
2007
2006
1996
1983
1975
1975
1973
1962
1956
1951
1951
1941
1933
1924
1911
1904
1903
1892
1881
1872
1861
1857
1841
1839
1827
1819
1820
1821
1807
1808
1804
1810
1801
1808
1807
1808
1808
1810
1826
1818
1828
1835
1840
1837
1840
1840
1849
1845
1846
1854
1853
1857
1856
1857
1856
1857
1857
1854
1851
1847
1846
1847
1845
1842
1840
1839
1836
1830
1819
1817
1808
1810
1805
1806
1791
1789
1789
1786
1781
1776
1774
1776
1762
1762
1750
1747
1755
1746
1749
1744
1744
1750
1745
1744
1738
1742
1739
1742
1744
1741
1744
1751
1754
1755
1754
1755
1759
1761
1761
1761
1762
1762
1767
1764
1767
1771
1776
1772
1769
1770
1765
1770
1769
1776
1769
1766
1767
1763
1763
1761
1765
1765
1765
1765
1759
1761
1766
1762
1758
1757
1757
1755
1751
1746
1744
1744
1748
1741
1744
1739
1743
1741
1744
1744
1743
1743
1744
1747
1744
1747
1744
1762
1769
1775
1780
1790
1809
1821
1839
1855
1879
1902
1925
1946
1967
1987
2019
2036
2058
2079
2101
2123
2131
2143
2147
2158
2166
2167
2165
2165
2161
2165
2158
2156
2141
2128
2127
2122
2113
2098
2091
2094
2081
2075
2063
2046
2042
2035
2019
2007
2010
2006
1998
1989
1979
1975
1968
1959
1949
1936
1926
1923
1921
1909
1902
1895
1894
1875
1868
1859
1844
1846
1838
1829
1823
1819
1823
1811
1813
1815
1819
1826
1823
1827
1826
1826
1835
1833
1841
1838
1842
1847
1851
1850
1849
1846
1853
1850
1851
1851
1853
1860
1852
1851
1846
1843
1846
1840
1838
1839
1834
1832
1823
1823
1813
1812
1819
1808
1805
1798
1795
1788
1789
1780
1782
1777
1781
1776
1773
1771
1767
1771
1761
1759
1753
1747
1754
1754
1746
1745
1748
1751
1747
1739
1746
1745
1747
1746
1744
1744
1744
1744
1743
1744
1739
1743
1744
1744
1744
1739
1739
1744
1744
1744
1735
1739
1747
1744
1744
1735
1744
1745
1743
1745
1730
1740
1744
1745
1748
1744
1743
1748
1743
1745
1742
1745
1746
1747
1747
1742
1744
1747
1744
1744
1744
1744
1747
1743
1741
1740
1742
1741
1738
1733
1733
1739
1743
1744
1755
1761
1770
1787
1807
1823
1837
1858
1885
1911
1931
1955
1981
2007
2026
2043
2066
2082
2107
2114
2127
2137
2137
2150
2151
2157
2156
2157
2155
2150
2144
2135
2130
2123
2119
2097
2086
2079
2069
2065
2059
2042
2030
2027
2023
2007
1999
1993
1990
1991
1979
1969
1967
1961
1950
1937
1923
1919
1909
1903
1890
1877
1874
1867
1862
1847
1840
1836
1830
1822
1826
1813
1806
1813
1808
1803
1808
1803
1813
1809
1808
1815
1815
1829
1826
1837
1834
1837
1840
1838
1840
1842
1845
1850
1847
1839
1840
1840
1840
1842
1838
1835
1829
1829
1829
1823
1826
1823
1829
1818
1822
1813
1806
1808
1808
1810
1803
1790
1795
1793
1787
1781
1783
1786
1779
1775
1760
1759
1761
1752
1745
1744
1743
1751
1739
1731
1738
1731
1739
1730
1732
1730
1730
1728
1731
1729
1734
1732
1734
1739
1737
1734
1737
1743
1744
1740
1742
1742
1744
1744
1744
1744
1742
1745
1744
1743
1742
1738
1749
1744
1744
1746
1743
1745
1743
1753
1741
1738
1744
1740
1741
1741
1739
1743
1740
1731
1738
1738
1743
1745
1742
1742
1737
1742
1742
1740
1739
1745
1743
1748
1745
1744
1749
1763
1766
1775
1776
1787
1794
1807
1823
1840
1853
1877
1893
1911
1931
1943
1969
1995
2016
2031
2037
2065
2080
2091
2096
2099
2111
2112
2114
2117
2110
2111
2109
2106
2097
2092
2090
2083
2075
2064
2047
2044
2032
2027
2019
2007
2009
1997
1987
1974
1968
1968
1962
1951
1938
1937
1936
1924
1915
1906
1897
1891
1886
1875
1867
1857
1861
1842
1840
1827
1821
1821
1818
1808
1803
1797
1798
1789
1783
1787
1788
1787
1794
1795
1796
1795
1805
1808
1827
1811
1808
1814
1825
1815
1826
1826
1826
1836
1834
1831
1829
1827
1830
1825
1824
1826
1830
1823
1821
1819
1819
1818
1811
1808
1807
1802
1805
1798
1794
1790
1781
1780
1778
1774
1771
1768
1767
1765
1766
1765
1761
1767
1768
1765
1755
1751
1755
1756
1751
1761
1747
1750
1752
1749
1747
1750
1747
1744
1744
1739
1739
1735
1735
1738
1733
1736
1743
1743
1743
1735
1733
1737
1743
1737
1741
1743
1738
1743
1743
1734
1742
1745
1744
1744
1744
1741
1744
1744
1744
1743
1744
1743
1744
1745
1742
1738
1744
1742
1741
1741
1738
1744
1744
1740
1743
1735
1739
1744
1739
1739
1735
1740
1743
1742
1740
1738
1742
1744
1746
1753
1753
1762
1773
1776
1794
1805
1823
1835
1855
1872
1880
1899
1925
1937
1957
1971
1993
2011
2024
2038
2059
2068
2081
2079
2091
2092
2096
2099
2096
2083
2079
2081
2078
2073
2064
2063
2047
2043
2037
2035
2023
2020
2005
2003
1997
1987
1983
1978
1973
1967
1962
1958
1941
1950
1937
1927
1933
1923
1909
1905
1901
1887
1886
1885
1872
1861
1847
1845
1840
1835
1825
1823
1823
1815
1821
1812
1818
1819
1814
1814
1811
1825
1830
1827
1831
1826
1826
1831
1836
1833
1831
1840
1842
1840
1840
1830
1837
1840
1839
1838
1826
1829
1828
1830
1824
1822
1823
1821
1818
1813
1808
1802
1807
1807
1805
1794
1795
1791
1783
1783
1776
1776
1777
1778
1773
1771
1765
1776
1765
1769
1759
1767
1760
1759
1759
1756
1753
1753
1755
1754
1743
1749
1745
1751
1750
1745
1758
1760
1755
1755
1753
1754
1750
1755
1749
1747
1751
1754
1754
1753
1749
1754
1753
1746
1749
1734
1748
1744
1747
1744
1740
1743
1749
1742
1744
1735
1745
1745
1741
1744
1743
1744
1746
1744
1744
1742
1744
1748
1744
1745
1744
1744
1746
1744
1757
1748
1746
1753
1751
1749
1744
1742
1750
1746
1750
1745
1753
1754
1751
1748
1744
1748
1756
1758
1760
1770
1779
1793
1801
1813
1823
1838
1858
1872
1885
1899
1919
1939
1954
1977
1983
2007
2023
2033
2045
2059
2064
2075
2069
2075
2082
2087
2089
2085
2077
2070
2065
2069
2057
2047
2029
2029
2026
2018
2003
2000
1999
1997
1986
1975
1974
1968
1967
1963
1950
1943
1937
1931
1929
1923
1913
1907
1907
1905
1887
1889
1878
1878
1869
1856
1845
1843
1843
1839
1831
1825
1821
1821
1817
1813
1811
1807
1811
1810
1808
1807
1807
1806
1808
1809
1813
1815
1814
1822
1825
1824
1829
1831
1831
1826
1821
1834
1831
1838
1836
1825
1830
1829
1828
1826
1819
1817
1829
1818
1815
1809
1809
1811
1808
1806
1802
1797
1802
1796
1791
1790
1790
1785
1786
1783
1778
1779
1779
1776
1776
1776
1785
1777
1782
1780
1777
1773
1776
1773
1770
1762
1775
1770
1765
1764
1760
1762
1761
1770
1767
1762
1762
1768
1763
1759
1758
1758
1762
1761
1760
1761
1763
1765
1762
1762
1759
1761
1761
1759
1758
1760
1762
1758
1764
1758
1756
1763
1763
1755
1761
1759
1760
1760
1758
1759
1757
1757
1757
1755
1759
1754
1749
1755
1750
1751
1746
1747
1747
1749
1746
1744
1747
1754
1751
1746
1745
1743
1744
1746
1745
1747
1750
1751
1756
1759
1755
1767
1776
1787
1796
1805
1820
1840
1858
1872
1888
1907
1925
1939
1954
1968
1978
1993
2010
2019
2031
2034
2045
2045
2043
2047
2047
2047
2047
2043
2039
2047
2037
2033
2028
2007
2010
2002
1998
1989
1983
1974
1975
1963
1953
1950
1939
1939
1936
1935
1919
1914
1918
1911
1906
1893
1891
1895
1883
1876
1877
1867
1861
1857
1845
1835
1829
1833
1835
1821
1811
1809
1812
1814
1809
1808
1807
1814
1809
1813
1818
1819
1824
1829
1835
1829
1840
1838
1840
1842
1846
1843
1849
1851
1847
1850
1851
1855
1854
1847
1845
1846
1843
1842
1840
1835
1831
1833
1823
1824
1819
1811
1809
1808
1807
1795
1797
1799
1794
1787
1782
1781
1781
1776
1778
1778
1776
1774
1775
1769
1774
1776
1776
1773
1772
1764
1767
1771
1767
1762
1770
1764
1764
1771
1766
1760
1763
1771
1770
1771
1767
1764
1775
1776
1771
1767
1766
1773
1770
1765
1767
1769
1779
1776
1776
1775
1771
1776
1770
1770
1773
1773
1776
1766
1776
1770
1767
1776
1774
1769
1765
1759
1760
1760
1754
1751
1744
1750
1747
1744
1745
1741
1750
1746
1746
1744
1746
1750
1745
1746
1751
1750
1755
1750
1758
1758
1755
1765
1762
1767
1772
1773
1789
1791
1799
1808
1815
1829
1842
1858
1869
1875
1901
1915
1926
1938
1955
1974
1991
2002
2011
2023
2039
2043
2047
2055
2063
2069
2066
2059
2059
2057
2047
2036
2034
2027
2016
2023
2013
2001
1993
1990
1982
1974
1965
1962
1957
1958
1940
1943
1936
1932
1929
1921
1911
1910
1907
1895
1898
1887
1879
1872
1874
1867
1859
1852
1847
1855
1842
1835
1830
1831
1828
1823
1823
1814
1809
1813
1813
1813
1814
1822
1821
1823
1821
1821
1828
1831
1824
1831
1830
1831
1835
1838
1835
1837
1835
1841
1840
1839
1830
1838
1845
1840
1839
1837
1825
1825
1827
1824
1819
1821
1817
1815
1811
1807
1808
1808
1805
1802
1797
1796
1799
1796
1797
1787
1791
1791
1787
1785
1782
1777
1779
1776
1779
1773
1771
1771
1771
1768
1756
1757
1767
1762
1764
1757
1761
1762
1765
1755
1757
1759
1759
1758
1759
1758
1757
1765
1758
1761
1754
1757
1759
1756
1757
1757
1758
1755
1758
1754
1756
1755
1768
1771
1767
1765
1765
1771
1765
1770
1766
1775
1776
1766
1770
1767
1763
1767
1761
1767
1762
1761
1769
1762
1762
1761
1766
1766
1765
1758
1755
1756
1754
1751
1751
1753
1746
1765
1758
1758
1752
1758
1755
1762
1762
1773
1776
1791
1799
1808
1810
1826
1842
1857
1870
1885
1903
1920
1935
1949
1966
1969
1985
2003
2009
2019
2028
2037
2034
2041
2047
2042
2062
2043
2043
2045
2032
2028
2023
2013
2007
2000
1999
1993
1981
1969
1958
1964
1959
1947
1947
1936
1936
1927
1930
1919
1906
1913
1910
1904
1904
1901
1898
1893
1890
1883
1872
1872
1862
1861
1850
1846
1846
1842
1835
1826
1819
1824
1822
1822
1818
1817
1824
1823
1827
1821
1822
1825
1826
1825
1831
1823
1838
1840
1840
1840
1837
1841
1846
1842
1845
1847
1850
1851
1856
1850
1840
1840
1842
1840
1840
1834
1840
1840
1835
1831
1825
1829
1822
1821
1818
1813
1811
1809
1808
1805
1803
1800
1806
1796
1793
1787
1791
1791
1795
1785
1782
1777
1779
1776
1774
1774
1778
1776
1772
1774
1763
1776
1776
1776
1770
1769
1773
1775
1773
1775
1766
1776
1778
1777
1778
1775
1778
1779
1786
1776
1779
1787
1783
1790
1787
1781
1782
1782
1787
1781
1778
1776
1781
1782
1778
1776
1781
1776
1772
1771
1770
1775
1771
1765
1770
1765
1767
1767
1768
1762
1764
1761
1765
1765
1764
1763
1770
1776
1771
1769
1765
1771
1769
1765
1767
1766
1771
1775
1774
1774
1776
1790
1798
1808
1808
1823
1831
1847
1857
1873
1890
1905
1921
1931
1946
1954
1971
1985
2000
2006
2015
2031
2034
2039
2045
2039
2059
2047
2047
2047
2043
2037
2033
2033
2023
2009
2002
1997
1991
1983
1975
1973
1968
1964
1964
1951
1952
1946
1943
1936
1926
1926
1923
1920
1918
1910
1904
1908
1899
1902
1891
1883
1884
1872
1872
1861
1859
1858
1851
1854
1847
1843
1852
1841
1843
1839
1840
1846
1842
1845
1840
1845
1846
1841
1840
1839
1843
1847
1845
1841
1843
1840
1846
1843
1849
1850
1853
1855
1847
1850
1847
1849
1846
1844
1840
1837
1840
1853
1834
1831
1825
1849
1825
1819
1825
1819
1810
1814
1813
1810
1799
1801
1802
1798
1794
1791
1802
1799
1797
1795
1793
1790
1791
1789
1786
1781
1785
1792
1790
1785
1781
1787
1790
1786
1791
1780
1781
1791
1783
1787
1775
1776
1783
1783
1781
1777
1776
1779
1782
1776
1776
1785
1786
1780
1776
1776
1783
1785
1776
1777
1775
1776
1779
1781
1781
1777
1776
1788
1782
1777
1773
1778
1777
1776
1783
1778
1779
1779
1780
1776
1776
1776
1777
1776
1776
1774
1776
1776
1773
1775
1767
1771
1773
1783
1775
1782
1787
1795
1807
1811
1824
1835
1853
1862
1877
1888
1911
1929
1941
1961
1969
1985
2002
2023
2042
2060
2066
2141
2129
2083
2083
2143
2131
2101
2071
2129
2099
2096
2091
2081
2067
2057
2047
2035
2026
2013
2001
1999
1995
1975
1968
1967
1965
1947
1942
1937
1935
1936
1927
1922
1913
1907
1906
1903
1886
1883
1877
1873
1872
1865
1854
1851
1851
1843
1840
1833
1831
1835
1830
1830
1829
1818
1830
1833
1831
1830
1829
1838
1844
1840
1840
1844
1847
1845
1842
1841
1840
1851
1850
1850
1843
1851
1851
1846
1851
1847
1850
1847
1853
1853
1847
1851
1853
1855
1855
1840
1841
1841
1839
1835
1830
1827
1831
1824
1822
1818
1808
1818
1811
1809
1805
1805
1801
1802
1797
1787
1788
1794
1778
1774
1779
1779
1780
1780
1774
1774
1774
1776
1772
1770
1762
1770
1774
1775
1766
1772
1761
1774
1767
1770
1771
1765
1776
1773
1767
1767
1770
1776
1766
1771
1773
1774
1776
1776
1772
1773
1775
1776
1776
1771
1762
1770
1775
1769
1763
1761
1759
1764
1762
1766
1762
1755
1760
1762
1759
1760
1760
1769
1766
1765
1765
1767
1767
1765
1770
1767
1771
1775
1776
1776
1776
1790
1804
1805
1815
1819
1833
1849
1867
1875
1891
1909
1935
1942
1957
1970
1988
2007
2023
2039
2037
2047
2066
2070
2077
2077
2077
2085
2085
2077
2074
2065
2077
2067
2064
2058
2046
2041
2033
2027
2012
2005
2000
1991
1983
1979
1973
1969
1971
1958
1957
1947
1941
1935
1933
1922
1915
1919
1905
1902
1890
1893
1882
1877
1871
1867
1870
1859
1853
1846
1839
1837
1835
1831
1827
1826
1829
1831
1834
1823
1825
1828
1831
1830
1829
1827
1828
1840
1840
1837
1837
1838
1842
1849
1852
1842
1841
1850
1849
1856
1846
1848
1851
1842
1843
1840
1829
1836
1833
1829
1821
1825
1829
1819
1822
1814
1814
1821
1818
1808
1806
1807
1808
1802
1795
1795
1787
1792
1787
1778
1776
1771
1770
1770
1770
1763
1763
1768
1761
1755
1756
1757
1759
1761
1761
1754
1753
1760
1758
1759
1759
1753
1762
1755
1758
1754
1751
1759
1760
1759
1752
1758
1759
1760
1767
1761
1763
1763
1762
1758
1759
1758
1760
1757
1762
1766
1762
1766
1761
1763
1759
1757
1761
1757
1755
1758
1755
1755
1753
1757
1755
1756
1760
1754
1747
1746
1747
1750
1747
1747
1746
1745
1757
1757
1756
1758
1758
1763
1765
1766
1772
1774
1781
1781
1790
1788
1795
1808
1815
1824
1839
1857
1873
1893
1907
1921
1941
1951
1975
1980
2002
2009
2022
2032
2044
2047
2045
2062
2061
2061
2061
2047
2063
2047
2045
2042
2034
2032
2025
2013
2001
2000
1991
1984
1982
1971
1968
1967
1961
1959
1951
1940
1936
1936
1931
1922
1922
1920
1907
1904
1904
1894
1890
1886
1873
1867
1861
1854
1847
1840
1839
1831
1834
1825
1822
1819
1809
1823
1819
1814
1811
1815
1815
1818
1817
1817
1815
1819
1817
1821
1822
1819
1833
1830
1826
1823
1822
1819
1834
1828
1833
1824
1827
1829
1824
1828
1826
1830
1822
1822
1825
1810
1815
1823
1810
1808
1805
1808
1807
1795
1796
1795
1795
1791
1790
1793
1786
1785
1781
1781
1786
1779
1779
1781
1776
1775
1770
1770
1770
1771
1770
1763
1772
1773
1769
1765
1758
1771
1766
1767
1764
1761
1773
1771
1770
1765
1767
1768
1776
1767
1771
1766
1766
1772
1775
1766
1766
1776
1775
1771
1771
1769
1774
1762
1770
1773
1762
1771
1772
1776
1771
1766
1771
1773
1772
1765
1760
1770
1771
1767
1766
1770
1765
1762
1758
1756
1749
1754
1747
1750
1745
1749
1755
1751
1753
1763
1759
1767
1781
1786
1791
1795
1810
1817
1827
1840
1850
1872
1887
1894
1914
1934
1946
1967
1977
1985
1998
2014
2023
2032
2033
2042
2039
2047
2047
2043
2043
2047
2047
2042
2033
2026
2027
2015
2013
2001
1991
1991
1991
1977
1974
1966
1965
1961
1963
1953
1946
1945
1939
1934
1925
1920
1923
1918
1904
1904
1890
1884
1877
1871
1861
1850
1853
1841
1833
1831
1821
1824
1817
1808
1808
1794
1799
1806
1794
1797
1795
1798
1805
1806
1804
1808
1809
1814
1813
1821
1821
1825
1830
1830
1824
1821
1826
1837
1836
1830
1827
1830
1840
1837
1828
1831
1825
1827
1824
1825
1821
1813
1809
1810
1807
1805
1804
1803
1803
1802
1797
1799
1803
1797
1794
1789
1787
1786
1785
1787
1776
1776
1778
1776
1773
1770
1772
1776
1775
1776
1767
1774
1776
1774
1773
1769
1774
1776
1773
1776
1771
1776
1771
1771
1776
1774
1773
1770
1774
1774
1767
1775
1778
1774
1773
1769
1775
1776
1775
1775
1767
1767
1776
1772
1772
1767
1776
1776
1771
1771
1770
1775
1771
1773
1759
1760
1760
1763
1763
1759
1761
1760
1762
1759
1754
1748
1751
1758
1754
1755
1749
1758
1760
1755
1754
1760
1763
1767
1767
1776
1779
1787
1808
1817
1826
1840
1855
1873
1894
1905
1927
1943
1967
1975
1987
2000
2016
2033
2041
2061
2059
2064
2067
2071
2075
2068
2075
2073
2064
2047
2043
2046
2039
2031
2021
2007
2010
2007
1995
1985
1983
1982
1974
1968
1961
1950
1950
1951
1943
1934
1926
1926
1919
1915
1907
1900
1898
1893
1886
1877
1867
1862
1862
1857
1841
1840
1837
1829
1830
1824
1817
1819
1813
1808
1808
1808
1808
1807
1807
1813
1812
1814
1823
1825
1827
1829
1830
1831
1834
1837
1828
1837
1841
1840
1840
1835
1837
1839
1840
1836
1835
1838
1831
1826
1825
1827
1824
1827
1827
1821
1813
1814
1813
1810
1809
1807
1801
1803
1801
1798
1790
1787
1791
1790
1785
1781
1782
1783
1777
1776
1771
1776
1776
1774
1775
1766
1773
1775
1769
1773
1771
1767
1766
1767
1770
1759
1763
1766
1763
1763
1761
1757
1765
1758
1765
1764
1767
1770
1773
1769
1770
1769
1770
1776
1774
1771
1771
1771
1775
1774
1764
1771
1765
1775
1775
1762
1762
1765
1774
1771
1761
1763
1767
1759
1759
1761
1758
1758
1759
1760
1756
1763
1780
1770
1777
1783
1792
1808
1818
1825
1839
1853
1871
1879
1895
1903
1925
1947
1963
1979
1993
2005
2018
2032
2039
2039
2047
2065
2064
2064
2064
2066
2067
2064
2064
2061
2043
2039
2039
2031
2023
2027
2016
2005
2000
1993
1987
1985
1983
1975
1968
1969
1968
1965
1953
1951
1938
1937
1933
1923
1915
1909
1904
1904
1893
1875
1875
1872
1866
1855
1845
1840
1839
1829
1824
1815
1812
1815
1808
1803
1806
1805
1808
1809
1818
1813
1822
1830
1832
1826
1826
1828
1838
1841
1840
1840
1842
1846
1847
1846
1841
1841
1840
1841
1840
1840
1839
1839
1840
1835
1820
1824
1826
1817
1819
1817
1814
1821
1810
1809
1808
1806
1808
1801
1798
1796
1795
1792
1790
1791
1783
1781
1789
1781
1777
1776
1773
1776
1772
1775
1774
1770
1776
1776
1769
1765
1767
1778
1776
1771
1772
1771
1776
1777
1774
1771
1773
1776
1776
1776
1773
1770
1776
1775
1773
1766
1774
1777
1772
1774
1774
1772
1776
1769
1769
1767
1770
1765
1762
1758
1762
1765
1766
1766
1761
1759
1766
1765
1769
1767
1767
1767
1771
1775
1781
1778
1780
1802
1805
1810
1821
1837
1851
1869
1888
1894
1911
1935
1947
1963
1978
1995
2006
2021
2023
2033
2038
2047
2061
2047
2055
2062
2064
2047
2059
2047
2039
2038
2034
2032
2027
2021
2003
2007
1999
1989
1988
1987
1979
1974
1958
1957
1953
1951
1942
1937
1934
1931
1919
1917
1911
1902
1898
1891
1882
1871
1866
1859
1850
1842
1837
1833
1827
1824
1815
1808
1808
1808
1802
1801
1797
1805
1806
1803
1808
1807
1808
1810
1808
1808
1811
1814
1814
1817
1814
1815
1819
1819
1825
1823
1823
1823
1827
1823
1822
1823
1822
1826
1818
1823
1818
1811
1810
1810
1807
1807
1805
1799
1797
1797
1789
1790
1787
1793
1781
1776
1767
1777
1765
1766
1766
1764
1766
1765
1765
1770
1760
1763
1762
1758
1762
1758
1761
1761
1760
1761
1757
1759
1760
1755
1757
1754
1770
1766
1760
1761
1751
1761
1763
1763
1766
1769
1762
1769
1763
1763
1765
1760
1764
1760
1762
1761
1764
1762
1770
1767
1763
1767
1768
1758
1766
1763
1763
1763
1765
1758
1755
1761
1750
1760
1755
1750
1758
1754
1751
1751
1751
1757
1761
1759
1760
1767
1773
1782
1791
1795
1808
1823
1833
1849
1855
1871
1889
1904
1921
1935
1942
1968
1979
1991
2000
2011
2031
2035
2045
2047
2057
2063
2067
2064
2061
2047
2043
2045
2032
2030
2023
2018
2004
1999
1995
1987
1982
1969
1969
1962
1947
1950
1936
1935
1924
1922
1919
1918
1907
1903
1893
1893
1892
1879
1872
1866
1857
1850
1847
1849
1835
1829
1822
1814
1808
1805
1806
1806
1802
1791
1790
1791
1791
1792
1794
1792
1802
1807
1813
1809
1815
1815
1821
1824
1825
1830
1829
1826
1827
1824
1822
1835
1829
1829
1827
1830
1829
1830
1825
1820
1815
1822
1819
1819
1812
1811
1817
1808
1803
1802
1797
1795
1794
1790
1781
1778
1779
1776
1782
1781
1774
1775
1774
1774
1765
1761
1763
1770
1765
1769
1770
1776
1771
1767
1767
1766
1770
1769
1771
1770
1760
1765
1765
1769
1767
1765
1765
1765
1762
1760
1770
1763
1762
1755
1760
1759
1755
1765
1759
1759
1759
1762
1764
1775
1766
1765
1765
1765
1767
1771
1761
1766
1767
1766
1758
1758
1760
1766
1761
1759
1760
1759
1769
1760
1760
1757
1755
1763
1758
1761
1757
1762
1765
1767
1775
1775
1791
1801
1807
1813
1823
1838
1861
1871
1889
1904
1925
1938
1951
1962
1971
1991
2003
2014
2021
2026
2034
2043
2042
2039
2033
2043
2039
2031
2022
2015
2018
2021
2013
2005
1995
1991
1985
1981
1971
1959
1958
1958
1943
1938
1933
1926
1930
1919
1916
1909
1914
1904
1899
1893
1886
1879
1875
1872
1867
1850
1855
1854
1838
1837
1823
1826
1827
1825
1818
1808
1808
1808
1808
1802
1795
1807
1803
1799
1797
1799
1805
1806
1808
1808
1808
1808
1809
1808
1808
1811
1813
1814
1811
1815
1812
1819
1821
1818
1818
1811
1815
1810
1815
1814
1810
1808
1808
1810
1806
1801
1807
1803
1794
1796
1786
1794
1793
1786
1783
1777
1774
1779
1776
1772
1770
1775
1765
1767
1760
1759
1765
1769
1762
1760
1759
1766
1763
1764
1761
1757
1765
1766
1762
1759
1759
1761
1762
1761
1759
1760
1761
1767
1761
1763
1755
1761
1761
1763
1760
1755
1758
1761
1767
1766
1762
1767
1765
1766
1762
1758
1757
1751
1753
1755
1754
1753
1754
1757
1758
1756
1753
1757
1754
1751
1750
1755
1760
1761
1765
1755
1762
1772
1775
1777
1781
1795
1807
1808
1818
1827
1842
1855
1871
1878
1895
1909
1924
1936
1947
1954
1968
1975
1978
1990
1989
1999
2000
2000
2000
2003
1999
1998
1990
1993
1983
1981
1985
1973
1967
1953
1953
1953
1943
1937
1934
1926
1925
1917
1910
1905
1904
1909
1902
1901
1888
1883
1886
1874
1874
1870
1866
1863
1855
1846
1843
1845
1840
1831
1835
1825
1812
1815
1808
1808
1808
1808
1808
1802
1805
1799
1807
1812
1808
1808
1809
1812
1814
1809
1813
1808
1814
1818
1818
1819
1814
1822
1822
1818
1819
1810
1811
1808
1808
1808
1809
1803
1799
1807
1802
1796
1796
1802
1798
1798
1794
1790
1802
1792
1786
1787
1789
1788
1786
1780
1774
1776
1779
1783
1779
1776
1771
1778
1776
1774
1769
1766
1770
1762
1766
1757
1759
1763
1762
1762
1761
1760
1763
1763
1760
1755
1763
1766
1767
1771
1766
1770
1775
1764
1773
1762
1765
1774
1774
1773
1766
1773
1773
1773
1773
1767
1773
1774
1776
1775
1766
1776
1774
1773
1774
1771
1774
1779
1776
1772
1763
1766
1775
1771
1770
1765
1765
1773
1769
1765
1759
1761
1773
1765
1767
1765
1763
1770
1764
1772
1769
1770
1773
1782
1785
1786
1800
1808
1809
1813
1828
1839
1849
1863
1874
1881
1891
1906
1915
1927
1926
1939
1955
1962
1958
1962
1967
1974
1968
1970
1968
1968
1967
1967
1965
1949
1950
1943
1936
1933
1927
1925
1925
1921
1914
1906
1910
1913
1904
1904
1902
1899
1903
1895
1891
1879
1879
1885
1872
1868
1864
1863
1860
1857
1851
1841
1845
1848
1840
1829
1830
1822
1823
1818
1811
1810
1810
1811
1809
1809
1807
1802
1808
1807
1808
1808
1809
1808
1809
1809
1809
1813
1810
1813
1818
1820
1815
1825
1824
1822
1824
1815
1823
1814
1826
1825
1825
1827
1822
1822
1817
1822
1830
1824
1821
1815
1815
1814
1807
1807
1806
1808
1806
1797
1802
1795
1791
1795
1795
1792
1791
1792
1795
1795
1792
1792
1790
1796
1794
1792
1786
1783
1792
1785
1783
1782
1779
1782
1781
1779
1779
1776
1781
1779
1773
1771
1771
1783
1770
1776
1771
1776
1779
1776
1776
1767
1770
1775
1771
1766
1767
1763
1773
1771
1775
1776
1775
1776
1776
1777
1776
1775
1779
1778
1773
1775
1775
1777
1778
1775
1776
1778
1781
1782
1778
1774
1776
1779
1776
1782
1776
1776
1783
1778
1776
1773
1776
1776
1778
1774
1770
1775
1778
1783
1782
1783
1785
1797
1797
1805
1803
1811
1821
1834
1838
1845
1854
1860
1872
1889
1891
1901
1910
1923
1930
1933
1939
1951
1951
1954
1950
1955
1972
1955
1958
1954
1951
1954
1941
1936
1936
1931
1935
1924
1919
1917
1907
1915
1906
1907
1904
1904
1894
1895
1886
1877
1877
1879
1873
1872
1870
1862
1863
1857
1849
1844
1840
1840
1837
1834
1825
1824
1829
1825
1821
1819
1818
1817
1813
1823
1811
1811
1818
1818
1813
1811
1813
1818
1812
1819
1825
1815
1823
1821
1825
1825
1824
1826
1828
1827
1821
1825
1828
1829
1826
1826
1822
1818
1822
1826
1826
1825
1822
1823
1824
1823
1818
1823
1821
1821
1817
1815
1819
1819
1815
1808
1808
1813
1810
1811
1803
1807
1806
1804
1801
1791
1794
1798
1797
1792
1783
1785
1792
1788
1781
1781
1785
1787
1792
1791
1790
1791
1792
1791
1781
1782
1789
1791
1785
1787
1781
1782
1782
1779
1777
1777
1776
1785
1780
1777
1776
1778
1779
1783
1780
1781
1781
1789
1787
1785
1780
1783
1791
1791
1793
1799
1791
1793
1789
1786
1789
1789
1788
1790
1787
1787
1784
1791
1791
1782
1782
1786
1779
1783
1783
1778
1778
1789
1782
1789
1785
1786
1789
1787
1790
1788
1789
1797
1797
1797
1807
1807
1809
1817
1823
1829
1838
1849
1862
1870
1871
1886
1894
1904
1911
1918
1915
1932
1936
1932
1936
1938
1939
1943
1948
1942
1937
1946
1938
1938
1937
1934
1927
1931
1922
1919
1909
1915
1901
1904
1900
1890
1903
1888
1890
1883
1873
1875
1874
1870
1869
1865
1858
1859
1856
1845
1845
1851
1843
1840
1840
1833
1833
1835
1824
1824
1822
1825
1825
1831
1823
1822
1830
1825
1823
1821
1826
1827
1826
1829
1829
1826
1830
1837
1839
1840
1840
1845
1842
1842
1839
1840
1841
1843
1843
1841
1840
1839
1837
1828
1833
1830
1834
1839
1829
1830
1821
1827
1823
1817
1814
1814
1811
1811
1812
1811
1808
1811
1813
1807
1808
1806
1813
1815
1806
1802
1802
1807
1813
1805
1803
1805
1808
1805
1808
1808
1804
1799
1806
1805
1803
1796
1807
1807
1796
1799
1804
1805
1808
1803
1805
1805
1817
1805
1802
1799
1803
1809
1806
1808
1803
1799
1807
1808
1799
1805
1795
1803
1795
1796
1795
1795
1799
1801
1805
1801
1793
1795
1797
1797
1799
1797
1799
1797
1793
1791
1791
1797
1799
1798
1793
1790
1798
1797
1792
1795
1794
1801
1803
1807
1809
1808
1819
1827
1827
1831
1836
1847
1855
1870
1878
1887
1897
1903
1904
1910
1926
1930
1936
1938
1939
1936
1938
1947
1943
1943
1950
1945
1943
1946
1945
1937
1942
1941
1935
1935
1927
1929
1921
1917
1910
1905
1907
1905
1902
1903
1898
1895
1891
1898
1887
1884
1887
1878
1877
1878
1863
1872
1871
1859
1870
1851
1855
1863
1841
1840
1836
1834
1833
1824
1829
1821
1822
1819
1813
1819
1817
1823
1824
1821
1823
1815
1818
1823
1823
1831
1833
1834
1839
1839
1839
1833
1842
1839
1840
1837
1839
1846
1845
1840
1841
1845
1846
1845
1843
1842
1838
1841
1840
1840
1852
1831
1840
1837
1837
1840
1827
1835
1835
1831
1829
1827
1833
1826
1820
1822
1819
1818
1809
1809
1808
1808
1811
1808
1808
1808
1799
1806
1803
1802
1806
1799
1805
1797
1806
1807
1799
1799
1803
1801
1804
1797
1805
1805
1805
1801
1802
1807
1811
1803
1801
1805
1807
1805
1806
1805
1803
1805
1803
1802
1806
1801
1808
1807
1808
1806
1801
1803
1807
1807
1799
1801
1802
1802
1808
1797
1798
1802
1803
1799
1798
1793
1791
1801
1799
1797
1797
1802
1798
1803
1808
1808
1806
1814
1818
1820
1822
1839
1840
1847
1859
1862
1869
1883
1890
1904
1904
1919
1929
1936
1942
1937
1953
1963
1959
1968
1969
1968
1968
1974
1969
1965
1967
1970
1963
1962
1951
1955
1955
1951
1942
1936
1933
1937
1934
1925
1911
1919
1914
1911
1902
1891
1903
1901
1898
1893
1888
1886
1885
1877
1877
1872
1870
1871
1862
1860
1858
1857
1853
1842
1842
1840
1837
1840
1840
1833
1836
1838
1838
1833
1827
1823
1830
1831
1838
1833
1834
1841
1840
1840
1843
1841
1845
1847
1853
1853
1853
1852
1856
1847
1855
1847
1855
1854
1847
1846
1845
1847
1847
1841
1840
1842
1838
1840
1840
1839
1833
1837
1831
1833
1837
1826
1829
1830
1823
1828
1819
1821
1826
1823
1818
1815
1818
1818
1810
1813
1808
1815
1811
1814
1809
1807
1807
1811
1807
1808
1807
1809
1813
1808
1807
1803
1807
1810
1809
1809
1800
1807
1803
1809
1808
1806
1808
1809
1803
1808
1807
1801
1806
1807
1803
1797
1800
1807
1802
1797
1802
1803
1799
1800
1807
1801
1801
1806
1802
1799
1799
1805
1799
1803
1807
1808
1808
1808
1803
1807
1805
1804
1808
1806
1807
1798
1801
1808
1803
1808
1800
1806
1808
1809
1813
1809
1817
1826
1827
1831
1840
1849
1862
1868
1872
1881
1901
1911
1915
1927
1936
1941
1952
1953
1961
1967
1971
1978
1979
1982
1974
1979
1971
1968
1967
1967
1968
1967
1963
1955
1954
1952
1954
1942
1937
1936
1929
1933
1926
1921
1917
1918
1916
1906
1907
1906
1904
1903
1901
1894
1883
1882
1882
1878
1871
1867
1872
1868
1861
1847
1846
1843
1843
1841
1840
1835
1831
1840
1835
1837
1831
1837
1836
1833
1840
1840
1840
1840
1842
1841
1840
1846
1842
1844
1845
1840
1843
1849
1850
1847
1840
1840
1847
1846
1842
1842
1851
1855
1846
1851
1845
1852
1847
1852
1844
1846
1845
1850
1842
1841
1841
1840
1840
1844
1839
1834
1832
1826
1824
1824
1827
1824
1825
1823
1822
1819
1818
1818
1818
1813
1810
1808
1811
1808
1808
1803
1805
1806
1803
1806
1795
1794
1801
1800
1803
1797
1804
1807
1803
1801
1791
1793
1799
1796
1798
1801
1797
1802
1795
1794
1795
1797
1799
1796
1803
1795
1796
1802
1802
1805
1809
1802
1811
1808
1802
1802
1799
1807
1806
1803
1803
1807
1803
1808
1808
1805
1809
1807
1806
1808
1804
1801
1806
1801
1801
1806
1808
1814
1813
1812
1818
1829
1838
1840
1847
1851
1869
1878
1886
1895
1898
1916
1930
1931
1936
1951
1965
1968
1970
1982
1983
1989
1995
2000
2007
1991
1996
1999
1987
1986
1983
1982
1975
1966
1963
1955
1950
1952
1946
1949
1941
1937
1936
1929
1931
1925
1922
1923
1914
1907
1904
1902
1903
1899
1901
1886
1884
1878
1876
1870
1869
1867
1862
1855
1850
1849
1840
1846
1841
1834
1831
1835
1837
1831
1825
1831
1835
1840
1840
1841
1840
1840
1844
1846
1854
1847
1854
1856
1861
1854
1857
1862
1860
1859
1861
1851
1856
1861
1858
1859
1851
1853
1857
1853
1847
1843
1842
1847
1847
1840
1840
1835
1839
1838
1833
1831
1822
1833
1828
1828
1824
1823
1822
1821
1822
1819
1808
1815
1815
1817
1813
1811
1808
1808
1809
1808
1807
1810
1809
1808
1807
1806
1808
1808
1805
1806
1802
1802
1795
1798
1795
1799
1805
1801
1797
1794
1794
1808
1803
1803
1802
1802
1807
1798
1798
1800
1802
1805
1799
1798
1796
1799
1799
1797
1793
1791
1794
1801
1793
1793
1790
1786
1802
1791
1790
1791
1795
1794
1804
1797
1795
1794
1797
1802
1799
1795
1797
1799
1809
1818
1831
1826
1839
1840
1849
1854
1872
1887
1898
1904
1914
1926
1936
1947
1959
1968
1979
1986
1991
1989
1997
2000
2003
2001
2007
2000
2000
2000
2000
2000
1993
1991
1991
1979
1974
1967
1966
1967
1955
1949
1941
1941
1939
1935
1922
1917
1919
1917
1905
1904
1895
1891
1897
1887
1878
1876
1874
1872
1867
1869
1866
1859
1865
1861
1855
1853
1841
1843
1841
1839
1840
1839
1839
1831
1840
1834
1839
1840
1840
1842
1850
1849
1850
1844
1853
1857
1858
1861
1855
1862
1858
1861
1867
1859
1859
1863
1857
1859
1861
1853
1849
1849
1847
1843
1843
1841
1840
1840
1839
1830
1830
1830
1829
1826
1824
1819
1822
1818
1814
1813
1813
1810
1818
1819
1811
1808
1807
1811
1808
1807
1807
1807
1806
1808
1808
1797
1794
1801
1797
1799
1797
1801
1804
1806
1801
1797
1796
1805
1806
1802
1801
1803
1808
1803
1808
1811
1805
1807
1808
1803
1804
1805
1809
1807
1808
1802
1803
1805
1802
1808
1798
1797
1797
1799
1798
1790
1785
1798
1794
1792
1794
1781
1791
1787
1794
1786
1787
1789
1795
1786
1789
1786
1785
1787
1787
1789
1779
1790
1791
1790
1790
1788
1794
1791
1793
1794
1807
1808
1817
1821
1826
1835
1853
1855
1867
1879
1886
1907
1915
1930
1935
1943
1958
1974
1975
1986
1994
2000
2001
2007
2011
2011
2010
2005
2010
2000
1999
2007
1999
1993
1990
1977
1981
1971
1970
1959
1951
1951
1943
1941
1935
1930
1932
1927
1921
1921
1913
1909
1910
1905
1902
1900
1899
1889
1892
1885
1879
1884
1871
1870
1867
1855
1857
1851
1845
1841
1840
1840
1840
1840
1837
1830
1840
1838
1840
1840
1845
1843
1846
1850
1842
1839
1845
1850
1854
1847
1847
1858
1855
1851
1854
1854
1851
1857
1855
1857
1850
1848
1847
1851
1843
1845
1847
1845
1840
1839
1837
1837
1833
1835
1834
1828
1830
1829
1822
1825
1824
1823
1822
1824
1813
1808
1813
1813
1808
1808
1810
1806
1808
1806
1801
1808
1803
1798
1798
1796
1795
1777
1789
1791
1791
1786
1795
1792
1793
1790
1794
1795
1795
1804
1803
1797
1803
1803
1805
1795
1797
1804
1804
1807
1798
1803
1798
1799
1796
1798
1797
1794
1795
1791
1793
1796
1794
1795
1797
1790
1781
1794
1794
1791
1793
1791
1806
1793
1793
1793
1791
1787
1793
1795
1789
1787
1794
1784
1791
1787
1791
1789
1791
1789
1787
1789
1785
1786
1787
1792
1790
1794
1795
1795
1805
1949
1951
1938
1878
1949
1954
1949
1882
1921
1923
1935
1943
1952
1957
1968
1980
1993
1997
2000
2003
2003
2010
2013
2013
2013
2007
2003
2001
1999
2000
1994
1985
1981
1981
1970
1967
1962
1963
1955
1947
1941
1940
1939
1935
1929
1915
1919
1910
1903
1904
1899
1898
1895
1897
1887
1883
1884
1875
1872
1870
1865
1867
1857
1857
1847
1845
1845
1841
1841
1840
1837
1835
1837
1831
1835
1834
1837
1841
1840
1842
1847
1855
1847
1850
1847
1841
1842
1855
1850
1855
1854
1855
1855
1856
1854
1854
1858
1856
1859
1855
1853
1855
1855
1851
1853
1852
1850
1849
1851
1847
1845
1843
1840
1838
1835
1823
1826
1822
1821
1818
1810
1813
1815
1811
1808
1808
1809
1809
1806
1804
1805
1805
1810
1807
1808
1806
1805
1808
1802
1798
1798
1806
1806
1793
1793
1792
1793
1793
1794
1789
1787
1798
1794
1789
1791
1789
1794
1791
1795
1789
1797
1791
1798
1793
1795
1793
1801
1801
1803
1803
1799
1802
1805
1799
1806
1803
1808
1802
1802
1797
1799
1799
1795
1793
1790
1791
1798
1798
1795
1793
1787
1793
1787
1790
1787
1788
1792
1791
1781
1786
1783
1791
1785
1783
1785
1781
1790
1796
1807
1806
1809
1823
1830
1837
1847
1854
1866
1885
1895
1913
1925
1941
1954
1969
1978
1987
2003
2013
2015
2021
2027
2033
2037
2044
2043
2039
2047
2043
2037
2036
2029
2022
2022
2011
2007
2001
1999
1994
1987
1979
1975
1970
1971
1968
1967
1957
1957
1955
1949
1937
1936
1936
1931
1926
1924
1922
1921
1907
1904
1896
1888
1883
1882
1879
1872
1867
1860
1858
1854
1854
1843
1850
1853
1848
1846
1847
1851
1846
1854
1851
1850
1850
1856
1856
1861
1855
1861
1866
1867
1869
1867
1871
1872
1872
1872
1870
1870
1872
1867
1857
1861
1860
1854
1852
1853
1841
1843
1843
1839
1839
1831
1826
1828
1822
1824
1819
1818
1815
1813
1820
1817
1818
1819
1813
1815
1808
1811
1815
1808
1813
1809
1808
1803
1806
1806
1792
1809
1808
1805
1806
1806
1799
1805
1803
1799
1796
1798
1799
1795
1795
1795
1791
1795
1791
1793
1790
1789
1797
1795
1799
1798
1802
1807
1802
1806
1798
1802
1803
1804
1802
1797
1799
1802
1798
1799
1795
1802
1799
1797
1795
1794
1794
1792
1791
1791
1789
1791
1794
1789
1793
1787
1793
1787
1789
1782
1779
1781
1778
1789
1782
1782
1786
1798
1777
1791
1779
1786
1791
1789
1786
1790
1795
1797
1804
1808
1811
1829
1839
1846
1854
1871
1888
1899
1918
1935
1947
1968
1987
2002
2015
2023
2032
2047
2064
2067
2071
2078
2085
2084
2082
2076
2081
2082
2074
2067
2064
2061
2059
2046
2032
2020
2021
2013
2011
2007
1996
1997
1987
1987
1977
1970
1971
1968
1957
1952
1945
1951
1946
1936
1934
1926
1921
1911
1907
1904
1890
1885
1887
1879
1872
1869
1872
1870
1859
1855
1850
1853
1850
1842
1846
1840
1843
1841
1844
1840
1837
1846
1851
1853
1856
1855
1855
1862
1863
1861
1861
1865
1859
1857
1862
1862
1857
1862
1867
1867
1860
1859
1867
1857
1861
1855
1859
1854
1858
1854
1845
1846
1854
1847
1840
1838
1835
1840
1837
1834
1827
1826
1831
1819
1818
1815
1813
1808
1803
1801
1797
1793
1794
1791
1788
1782
1786
1787
1783
1781
1779
1779
1782
1779
1776
1773
1776
1776
1771
1776
1774
1781
1777
1776
1776
1776
1770
1776
1782
1776
1776
1779
1778
1777
1777
1776
1776
1776
1776
1772
1773
1774
1776
1776
1771
1773
1776
1767
1775
1776
1776
1775
1778
1776
1776
1776
1779
1787
1782
1780
1781
1783
1790
1788
1795
1787
1788
1791
1783
1785
1785
1783
1789
1782
1789
1789
1783
1787
1790
1776
1769
1776
1776
1775
1775
1774
1767
1776
1778
1772
1776
1776
1791
1793
1808
1808
1822
1838
1847
1862
1878
1893
1918
1935
1952
1967
1986
2000
2017
2032
2043
2057
2066
2082
2083
2089
2095
2098
2097
2096
2094
2092
2087
2084
2075
2064
2047
2059
2045
2035
2027
2015
2013
2001
1997
1986
1982
1985
1978
1969
1968
1963
1963
1956
1955
1942
1941
1943
1936
1930
1919
1917
1909
1898
1891
1875
1871
1865
1865
1855
1845
1843
1840
1836
1841
1834
1835
1838
1836
1831
1826
1838
1838
1845
1854
1851
1847
1854
1858
1861
1866
1869
1872
1870
1872
1871
1872
1874
1871
1872
1872
1872
1871
1871
1865
1857
1856
1858
1857
1847
1840
1840
1842
1839
1829
1823
1823
1826
1827
1814
1807
1793
1813
1798
1801
1798
1792
1795
1796
1795
1789
1783
1790
1786
1789
1786
1783
1795
1780
1777
1777
1776
1782
1780
1776
1775
1776
1776
1767
1771
1768
1770
1777
1774
1776
1773
1767
1778
1776
1778
1778
1776
1781
1775
1777
1767
1776
1781
1781
1778
1777
1780
1783
1779
1776
1777
1781
1782
1778
1781
1777
1777
1777
1776
1774
1771
1771
1776
1779
1776
1772
1776
1776
1776
1776
1776
1775
1778
1777
1776
1776
1777
1776
1778
1775
1773
1776
1777
1775
1773
1764
1770
1770
1770
1765
1760
1763
1767
1766
1761
1761
1764
1765
1767
1772
1777
1787
1803
1808
1821
1830
1854
1867
1877
1904
1918
1933
1955
1975
1999
2013
2032
2045
2064
2071
2080
2093
2099
2107
2106
2101
2113
2113
2121
2110
2101
2101
2099
2091
2079
2071
2063
2062
2045
2032
2026
2017
2015
2001
1994
1986
1989
1983
1970
1968
1960
1957
1954
1949
1938
1935
1936
1925
1919
1913
1904
1897
1892
1883
1877
1872
1868
1867
1856
1849
1841
1845
1842
1840
1834
1827
1829
1837
1835
1830
1831
1837
1840
1839
1841
1840
1850
1861
1861
1858
1855
1859
1867
1869
1872
1863
1867
1871
1872
1868
1865
1870
1866
1870
1862
1850
1857
1855
1850
1839
1837
1835
1840
1831
1828
1817
1819
1818
1810
1809
1803
1793
1791
1790
1787
1782
1781
1783
1776
1778
1776
1775
1773
1767
1772
1767
1767
1771
1766
1762
1759
1763
1761
1761
1758
1762
1767
1774
1773
1769
1760
1765
1776
1776
1775
1766
1774
1778
1776
1781
1776
1779
1780
1776
1783
1776
1776
1774
1775
1773
1775
1776
1776
1777
1776
1767
1772
1775
1774
1775
1765
1764
1774
1772
1774
1776
1776
1776
1776
1775
1772
1777
1776
1776
1773
1765
1775
1776
1773
1771
1767
1769
1775
1770
1771
1763
1763
1771
1769
1766
1761
1757
1770
1766
1763
1755
1763
1763
1764
1763
1758
1767
1774
1766
1776
1776
1778
1791
1797
1806
1814
1828
1851
1872
1882
1898
1921
1941
1957
1977
1997
2011
2031
2047
2067
2074
2090
2101
2109
2119
2115
2121
2128
2127
2127
2125
2122
2115
2109
2100
2089
2091
2079
2069
2064
2047
2037
2032
2029
2019
2007
2000
1997
1983
1977
1968
1967
1969
1960
1951
1941
1939
1936
1930
1915
1904
1904
1901
1893
1887
1867
1857
1856
1846
1842
1835
1829
1835
1826
1815
1815
1813
1810
1813
1815
1817
1819
1827
1826
1839
1835
1841
1847
1845
1853
1855
1858
1867
1870
1871
1870
1870
1878
1874
1874
1866
1873
1881
1871
1867
1856
1857
1860
1854
1853
1847
1843
1840
1837
1840
1834
1834
1835
1831
1820
1814
1814
1822
1813
1808
1798
1796
1798
1793
1797
1791
1782
1783
1786
1777
1776
1766
1767
1769
1769
1761
1760
1763
1763
1761
1764
1765
1775
1766
1770
1766
1767
1773
1776
1770
1773
1772
1782
1776
1774
1773
1776
1776
1774
1774
1770
1772
1779
1777
1771
1776
1776
1777
1773
1776
1770
1770
1777
1775
1771
1768
1771
1776
1776
1776
1774
1776
1774
1776
1775
1765
1767
1773
1765
1763
1759
1765
1766
1767
1767
1767
1767
1772
1770
1769
1773
1776
1777
1778
1776
1773
1774
1776
1775
1776
1770
1767
1770
1761
1765
1758
1760
1765
1764
1762
1761
1777
1773
1776
1783
1791
1807
1815
1824
1840
1855
1874
1895
1915
1936
1954
1971
1997
2013
2032
2043
2068
2087
2097
2106
2119
2128
2133
2135
2135
2128
2128
2131
2128
2123
2107
2103
2098
2090
2075
2064
2055
2043
2033
2022
2013
2005
1998
1990
1982
1987
1968
1967
1958
1943
1943
1940
1936
1926
1924
1913
1909
1904
1897
1886
1879
1873
1871
1857
1856
1847
1840
1840
1840
1830
1829
1836
1839
1831
1834
1827
1835
1838
1840
1839
1830
1840
1842
1846
1849
1850
1860
1870
1869
1872
1874
1875
1881
1883
1884
1877
1875
1879
1879
1875
1879
1875
1872
1872
1868
1861
1862
1863
1857
1851
1839
1840
1840
1834
1829
1828
1822
1820
1815
1813
1811
1808
1803
1803
1799
1799
1794
1797
1792
1792
1786
1783
1786
1786
1785
1779
1776
1776
1776
1776
1773
1769
1775
1775
1771
1773
1773
1776
1779
1773
1771
1773
1775
1767
1770
1767
1763
1770
1763
1767
1766
1762
1771
1763
1760
1759
1765
1771
1769
1766
1766
1774
1774
1775
1774
1783
1783
1779
1777
1777
1775
1774
1778
1775
1775
1778
1775
1776
1776
1778
1783
1777
1780
1779
1776
1775
1779
1778
1778
1779
1777
1777
1776
1775
1766
1769
1769
1765
1765
1771
1764
1766
1763
1766
1766
1759
1766
1770
1772
1773
1773
1776
1786
1793
1805
1808
1825
1840
1853
1871
1887
1906
1933
1951
1974
1995
2011
2045
2064
2077
2086
2099
2117
2125
2129
2142
2142
2146
2147
2149
2146
2147
2146
2130
2123
2109
2106
2091
2083
2067
2047
2039
2034
2021
2011
2001
1990
1985
1973
1965
1961
1950
1943
1939
1934
1921
1915
1920
1911
1902
1891
1886
1883
1872
1869
1857
1851
1849
1847
1840
1826
1827
1834
1823
1824
1823
1825
1829
1835
1830
1830
1834
1840
1840
1840
1840
1845
1854
1858
1861
1866
1861
1863
1867
1863
1861
1866
1872
1871
1866
1863
1858
1859
1856
1846
1842
1842
1843
1841
1841
1840
1834
1840
1835
1834
1826
1825
1831
1823
1815
1808
1808
1808
1802
1799
1795
1791
1795
1789
1782
1776
1779
1780
1779
1776
1777
1776
1777
1776
1776
1773
1775
1777
1776
1775
1767
1775
1773
1772
1771
1771
1773
1771
1766
1767
1760
1766
1770
1759
1767
1762
1758
1762
1763
1758
1762
1759
1763
1763
1766
1763
1762
1767
1765
1765
1763
1763
1771
1773
1775
1769
1775
1775
1776
1776
1767
1767
1776
1773
1770
1767
1770
1771
1769
1772
1773
1771
1773
1771
1773
1769
1771
1774
1770
1769
1762
1762
1770
1766
1770
1765
1761
1766
1762
1765
1763
1766
1771
1772
1776
1781
1786
1808
1817
1829
1839
1855
1875
1885
1909
1935
1957
1983
2002
2023
2047
2075
2096
2110
2118
2128
2142
2150
2162
2162
2160
2158
2161
2160
2151
2149
2142
2134
2126
2110
2105
2095
2085
2071
2055
2039
2031
2026
2014
2003
1995
1987
1985
1981
1968
1965
1967
1959
1951
1947
1937
1934
1929
1922
1916
1905
1893
1895
1889
1884
1872
1863
1859
1853
1841
1839
1840
1833
1833
1831
1823
1824
1827
1830
1827
1827
1829
1834
1834
1835
1838
1840
1847
1849
1843
1845
1854
1856
1855
1858
1853
1857
1863
1859
1859
1857
1856
1861
1855
1854
1849
1851
1851
1842
1836
1835
1837
1827
1826
1823
1814
1811
1811
1802
1802
1797
1795
1794
1791
1789
1786
1781
1786
1778
1778
1773
1772
1767
1765
1759
1753
1753
1761
1754
1755
1754
1749
1759
1762
1757
1754
1753
1756
1753
1754
1751
1760
1763
1761
1759
1757
1761
1759
1770
1773
1759
1761
1775
1767
1767
1763
1767
1770
1765
1763
1765
1765
1765
1765
1765
1767
1771
1776
1774
1772
1775
1771
1765
1770
1766
1764
1771
1776
1775
1774
1765
1771
1766
1766
1767
1765
1762
1767
1763
1758
1751
1750
1755
1751
1753
1745
1749
1757
1751
1749
1744
1745
1746
1744
1745
1750
1747
1763
1763
1776
1777
1791
1801
1819
1831
1845
1865
1904
1904
1923
1948
1969
1999
2027
2046
2065
2080
2103
2117
2129
2138
2149
2158
2158
2158
2155
2151
2149
2143
2135
2128
2123
2112
2103
2086
2077
2067
2061
2047
2032
2015
2003
1995
1990
1983
1975
1968
1966
1957
1951
1945
1943
1938
1928
1920
1914
1906
1903
1898
1882
1879
1872
1866
1859
1850
1839
1837
1839
1826
1825
1819
1819
1818
1821
1814
1812
1821
1827
1825
1824
1825
1835
1840
1838
1840
1840
1843
1853
1851
1855
1846
1855
1856
1855
1853
1854
1855
1859
1850
1853
1847
1850
1843
1842
1842
1840
1838
1837
1829
1826
1813
1815
1823
1815
1808
1804
1803
1806
1806
1803
1801
1797
1794
1799
1793
1785
1790
1791
1787
1781
1779
1778
1781
1777
1776
1773
1770
1776
1762
1759
1758
1758
1751
1753
1751
1753
1753
1751
1751
1750
1746
1749
1748
1748
1748
1760
1748
1756
1756
1750
1751
1748
1758
1757
1759
1759
1762
1764
1767
1766
1760
1776
1773
1770
1779
1765
1767
1771
1770
1768
1765
1773
1776
1776
1776
1775
1776
1781
1776
1776
1775
1769
1776
1776
1770
1767
1765
1767
1761
1765
1762
1771
1767
1761
1766
1761
1760
1763
1764
1764
1770
1770
1778
1778
1791
1807
1818
1840
1840
1855
1874
1901
1919
1935
1954
1969
1991
2021
2038
2059
2071
2087
2097
2117
2127
2127
2133
2141
2135
2134
2128
2127
2125
2127
2107
2096
2086
2078
2063
2046
2035
2032
2018
2009
1999
1995
1983
1975
1969
1968
1953
1946
1939
1934
1929
1927
1921
1922
1915
1899
1890
1888
1883
1878
1870
1862
1856
1847
1840
1831
1819
1828
1819
1810
1808
1806
1799
1803
1797
1803
1802
1808
1811
1815
1807
1827
1827
1837
1838
1840
1840
1841
1847
1843
1846
1847
1845
1855
1850
1842
1844
1847
1842
1839
1840
1834
1839
1838
1841
1840
1824
1824
1829
1827
1826
1817
1813
1819
1817
1809
1802
1798
1801
1793
1788
1779
1779
1776
1778
1776
1771
1771
1769
1766
1762
1762
1759
1760
1761
1760
1753
1757
1761
1757
1751
1745
1751
1758
1756
1749
1749
1751
1757
1756
1758
1747
1757
1761
1765
1759
1756
1755
1766
1769
1763
1761
1761
1765
1762
1767
1760
1770
1765
1773
1770
1765
1769
1769
1763
1762
1760
1761
1766
1765
1759
1757
1758
1759
1755
1758
1756
1750
1745
1757
1753
1750
1754
1749
1756
1746
1747
1749
1749
1745
1751
1754
1759
1765
1767
1776
1770
1779
1795
1798
1808
1821
1834
1845
1867
1881
1903
1923
1943
1968
1987
2010
2016
2046
2064
2083
2091
2106
2119
2131
2128
2130
2134
2143
2141
2131
2127
2126
2119
2106
2096
2087
2085
2074
2063
2041
2031
2023
2021
2015
2000
1994
1989
1981
1978
1969
1965
1959
1958
1943
1943
1936
1930
1922
1909
1904
1899
1891
1886
1872
1870
1859
1850
1847
1840
1833
1824
1825
1823
1818
1815
1808
1809
1809
1818
1819
1817
1825
1831
1830
1839
1840
1839
1847
1855
1855
1847
1853
1861
1862
1862
1861
1866
1866
1865
1861
1859
1854
1855
1853
1851
1841
1840
1840
1835
1830
1822
1819
1822
1821
1812
1808
1802
1807
1795
1799
1789
1793
1791
1789
1779
1790
1782
1785
1779
1779
1776
1778
1777
1776
1778
1771
1767
1774
1770
1771
1763
1773
1776
1770
1770
1761
1765
1767
1770
1770
1760
1759
1764
1765
1766
1759
1767
1767
1767
1773
1767
1769
1771
1775
1773
1764
1768
1770
1766
1764
1760
1765
1763
1767
1767
1767
1773
1774
1776
1769
1766
1770
1775
1776
1774
1764
1770
1771
1773
1757
1767
1763
1765
1769
1770
1765
1759
1763
1765
1763
1765
1763
1767
1771
1771
1765
1759
1765
1765
1759
1757
1761
1763
1769
1772
1783
1789
1802
1811
1824
1829
1841
1870
1883
1898
1919
1937
1967
1981
2000
2015
2032
2064
2074
2094
2096
2103
2119
2127
2126
2128
2129
2128
2129
2128
2119
2112
2106
2099
2092
2079
2075
2071
2064
2060
2036
2036
2031
2026
2018
2006
1995
1988
1990
1975
1971
1968
1966
1963
1947
1946
1936
1936
1931
1919
1911
1904
1903
1895
1890
1875
1872
1869
1861
1865
1854
1843
1850
1845
1839
1839
1839
1834
1834
1838
1838
1835
1840
1840
1840
1843
1845
1857
1854
1855
1861
1862
1865
1869
1870
1856
1866
1868
1866
1869
1865
1866
1867
1861
1859
1850
1841
1841
1838
1835
1830
1830
1824
1819
1815
1810
1807
1807
1808
1797
1790
1794
1795
1794
1792
1790
1781
1790
1786
1782
1776
1779
1781
1776
1779
1776
1776
1777
1777
1777
1777
1775
1777
1778
1772
1766
1765
1773
1771
1766
1767
1767
1775
1772
1771
1771
1771
1776
1781
1775
1771
1776
1776
1776
1783
1774
1776
1779
1778
1777
1776
1774
1781
1775
1779
1776
1774
1776
1776
1776
1770
1769
1773
1770
1767
1770
1763
1767
1770
1774
1763
1769
1771
1770
1774
1771
1775
1776
1767
1767
1765
1766
1761
1761
1759
1762
1761
1762
1766
1763
1762
1761
1774
1761
1761
1758
1762
1776
1777
1786
1787
1799
1812
1824
1840
1859
1873
1893
1913
1935
1952
1971
1999
2012
2035
2047
2070
2093
2107
2118
2127
2134
2147
2145
2143
2143
2147
2143
2142
2131
2125
2115
2112
2101
2096
2085
2077
2071
2064
2042
2039
2023
2023
2006
2001
1994
1990
1986
1983
1975
1968
1967
1965
1951
1943
1933
1917
1926
1914
1904
1897
1895
1885
1873
1866
1856
1845
1845
1840
1839
1827
1823
1826
1820
1815
1822
1821
1831
1831
1835
1831
1840
1847
1845
1851
1857
1867
1862
1867
1863
1867
1869
1871
1866
1871
1866
1871
1872
1870
1870
1868
1861
1860
1858
1858
1857
1850
1853
1847
1840
1831
1830
1827
1825
1818
1808
1808
1808
1802
1798
1791
1794
1796
1782
1791
1782
1784
1783
1779
1778
1776
1776
1776
1775
1775
1774
1772
1776
1771
1770
1769
1774
1781
1774
1776
1770
1767
1771
1769
1767
1765
1759
1759
1760
1753
1751
1761
1759
1757
1760
1759
1755
1770
1755
1759
1758
1753
1763
1758
1759
1751
1761
1759
1761
1769
1765
1764
1763
1773
1771
1769
1764
1767
1774
1770
1765
1766
1766
1769
1770
1764
1764
1766
1766
1766
1763
1764
1767
1762
1761
1760
1758
1761
1755
1754
1751
1754
1749
1758
1753
1750
1754
1757
1763
1769
1770
1783
1793
1807
1822
1835
1856
1872
1895
1923
1938
1965
1987
2002
2029
2047
2077
2095
2104
2115
2127
2137
2151
2158
2160
2157
2155
2163
2160
2154
2149
2147
2137
2127
2118
2106
2096
2096
2087
2081
2070
2067
2065
2055
2045
2033
2023
2029
2019
2007
2000
1998
1994
1987
1981
1971
1965
1961
1962
1943
1933
1924
1921
1906
1892
1886
1872
1869
1861
1850
1840
1839
1840
1833
1829
1823
1831
1828
1825
1824
1824
1829
1834
1838
1840
1844
1840
1851
1846
1852
1852
1855
1855
1859
1855
1855
1859
1859
1861
1855
1852
1851
1854
1843
1843
1837
1837
1833
1830
1825
1824
1825
1837
1821
1813
1813
1806
1808
1808
1803
1795
1797
1803
1794
1790
1785
1786
1782
1781
1776
1773
1766
1766
1767
1761
1758
1761
1763
1766
1773
1760
1760
1767
1755
1758
1754
1746
1754
1749
1745
1744
1747
1746
1758
1748
1745
1750
1755
1755
1755
1747
1749
1756
1761
1763
1767
1763
1775
1773
1767
1766
1770
1770
1760
1758
1755
1759
1757
1755
1757
1749
1755
1761
1753
1757
1756
1758
1753
1755
1751
1750
1750
1745
1754
1751
1744
1749
1747
1745
1746
1744
1744
1746
1742
1744
1741
1743
1746
1742
1738
1732
1742
1744
1741
1749
1743
1744
1744
1744
1742
1746
1753
1754
1758
1771
1773
1779
1791
1798
1809
1827
1840
1865
1883
1904
1923
1941
1968
1984
2007
2025
2039
2071
2080
2091
2102
2117
2127
2127
2134
2139
2139
2141
2143
2128
2125
2119
2118
2106
2099
2091
2087
2079
2067
2061
2039
2032
2032
2019
2017
2003
2000
1994
1983
1971
1970
1968
1968
1967
1958
1948
1942
1941
1933
1921
1921
1915
1909
1900
1892
1873
1872
1871
1856
1845
1840
1840
1835
1826
1823
1823
1823
1823
1825
1818
1814
1823
1830
1830
1827
1824
1833
1842
1840
1843
1840
1844
1853
1851
1847
1846
1852
1855
1850
1847
1847
1847
1845
1846
1843
1836
1840
1840
1840
1838
1830
1827
1830
1825
1819
1814
1809
1811
1808
1801
1799
1797
1798
1798
1792
1787
1787
1788
1781
1782
1776
1777
1777
1776
1779
1767
1773
1773
1767
1763
1758
1757
1763
1758
1755
1759
1755
1766
1762
1765
1762
1757
1764
1763
1764
1765
1762
1763
1761
1762
1754
1759
1754
1761
1755
1757
1760
1769
1763
1757
1751
1757
1759
1763
1758
1747
1754
1759
1754
1759
1750
1754
1757
1758
1760
1755
1759
1758
1764
1760
1757
1757
1759
1754
1751
1754
1753
1754
1755
1749
1751
1751
1751
1750
1747
1747
1744
1747
1744
1744
1737
1744
1747
1744
1744
1742
1754
1755
1747
1755
1749
1757
1762
1767
1764
1766
1778
1788
1796
1808
1818
1834
1850
1865
1879
1883
1911
1930
1951
1966
1979
2000
2015
2033
2047
2059
2070
2081
2087
2091
2091
2103
2100
2097
2090
2090
2085
2082
2078
2064
2045
2037
2035
2023
2015
2005
2005
1995
1987
1985
1970
1964
1965
1962
1954
1951
1948
1947
1941
1936
1931
1925
1919
1914
1911
1904
1897
1894
1882
1875
1870
1858
1857
1850
1841
1837
1830
1833
1823
1815
1810
1812
1811
1808
1815
1808
1809
1811
1819
1815
1814
1818
1833
1822
1835
1830
1839
1840
1835
1839
1833
1833
1834
1839
1839
1834
1831
1833
1833
1827
1822
1822
1823
1814
1819
1812
1817
1808
1808
1808
1805
1809
1809
1811
1802
1803
1801
1805
1802
1797
1795
1791
1790
1799
1793
1785
1780
1778
1776
1778
1779
1773
1776
1771
1771
1773
1771
1776
1775
1771
1767
1775
1766
1769
1765
1763
1758
1765
1755
1758
1749
1759
1763
1760
1767
1764
1765
1772
1762
1766
1769
1774
1771
1769
1767
1769
1774
1776
1767
1766
1766
1767
1769
1768
1767
1766
1765
1765
1759
1761
1759
1761
1769
1768
1765
1765
1765
1771
1765
1761
1756
1768
1763
1765
1759
1757
1756
1758
1759
1761
1759
1760
1760
1763
1759
1755
1755
1762
1761
1762
1758
1762
1762
1762
1770
1762
1765
1777
1776
1790
1793
1797
1814
1834
1844
1862
1878
1898
1918
1933
1945
1968
1991
2000
2017
2025
2039
2064
2070
2077
2083
2091
2096
2091
2091
2086
2085
2081
2085
2065
2063
2045
2039
2032
2019
2007
2000
1998
1985
1979
1969
1967
1968
1956
1951
1939
1937
1938
1936
1935
1926
1929
1919
1919
1910
1905
1902
1893
1889
1885
1879
1874
1873
1869
1855
1842
1843
1840
1840
1835
1829
1837
1830
1827
1825
1822
1831
1831
1827
1829
1821
1831
1829
1836
1834
1837
1840
1845
1842
1843
1840
1849
1847
1845
1843
1841
1845
1851
1845
1851
1841
1842
1847
1840
1840
1833
1834
1839
1828
1825
1822
1821
1818
1815
1810
1808
1810
1808
1804
1806
1805
1799
1838
1825
1786
1781
1835
1826
1788
1771
1830
1808
1805
1797
1791
1783
1783
1776
1773
1765
1757
1766
1760
1750
1760
1744
1747
1749
1755
1749
1751
1750
1756
1755
1751
1750
1750
1751
1754
1751
1755
1760
1761
1758
1760
1757
1765
1763
1762
1759
1761
1762
1766
1767
1771
1762
1770
1776
1775
1771
1772
1775
1776
1776
1774
1773
1775
1776
1776
1775
1766
1778
1777
1774
1773
1770
1771
1774
1771
1767
1769
1775
1774
1772
1769
1765
1771
1775
1773
1771
1771
1773
1774
1775
1770
1762
1763
1773
1770
1771
1770
1771
1775
1777
1790
1791
1807
1813
1824
1840
1847
1867
1884
1904
1917
1933
1949
1972
1993
2000
2010
2030
2043
2047
2064
2065
2075
2080
2074
2075
2070
2066
2064
2063
2047
2039
2034
2032
2030
2019
2003
1999
1993
1978
1969
1963
1955
1951
1943
1936
1934
1929
1926
1925
1917
1907
1906
1907
1904
1901
1891
1888
1888
1879
1880
1871
1872
1864
1860
1856
1847
1843
1841
1844
1835
1830
1834
1834
1825
1831
1828
1829
1833
1834
1831
1832
1840
1840
1840
1843
1843
1855
1853
1851
1856
1854
1855
1859
1861
1858
1856
1855
1869
1856
1857
1855
1854
1847
1850
1846
1839
1840
1840
1833
1830
1823
1830
1827
1818
1823
1809
1811
1809
1805
1792
1781
1789
1794
1787
1788
1782
1780
1776
1778
1775
1777
1776
1786
1786
1776
1778
1778
1779
1787
1781
1778
1781
1780
1785
1790
1785
1787
1785
1784
1783
1778
1785
1787
1791
1786
1779
1776
1777
1776
1776
1776
1774
1776
1776
1774
1776
1774
1774
1776
1775
1774
1776
1777
1776
1778
1776
1787
1785
1783
1786
1777
1783
1781
1781
1779
1778
1776
1779
1778
1782
1776
1775
1777
1782
1779
1776
1780
1783
1782
1780
1776
1779
1780
1776
1775
1775
1778
1776
1776
1775
1766
1771
1776
1774
1776
1776
1781
1791
1799
1808
1810
1830
1840
1850
1863
1872
1895
1913
1926
1942
1954
1973
1990
2000
2011
2015
2031
2038
2041
2047
2047
2059
2065
2063
2064
2061
2059
2047
2035
2032
2019
2009
2014
2003
1998
1987
1982
1975
1968
1961
1952
1939
1938
1936
1934
1933
1927
1927
1915
1914
1909
1904
1900
1891
1885
1878
1877
1873
1868
1870
1859
1858
1851
1847
1847
1843
1839
1839
1834
1837
1830
1834
1839
1835
1837
1830
1831
1836
1840
1840
1840
1845
1859
1852
1851
1853
1856
1859
1859
1856
1857
1870
1866
1857
1862
1855
1857
1854
1850
1847
1846
1841
1846
1840
1840
1835
1830
1835
1827
1825
1825
1818
1819
1818
1822
1811
1811
1811
1814
1808
1802
1804
1793
1801
1798
1798
1791
1783
1786
1785
1780
1788
1783
1787
1779
1781
1785
1788
1784
1789
1782
1786
1789
1786
1782
1780
1787
1788
1791
1791
1786
1787
1790
1788
1783
1782
1787
1785
1782
1786
1786
1793
1790
1788
1787
1787
1777
1786
1789
1776
1782
1783
1788
1793
1791
1791
1789
1798
1792
1795
1791
1793
1794
1795
1791
1790
1783
1786
1786
1785
1787
1786
1786
1787
1785
1790
1778
1787
1782
1779
1791
1783
1783
1787
1781
1784
1791
1799
1799
1807
1807
1825
1837
1853
1877
1872
1891
1906
1925
1936
1949
1968
1981
1996
2005
2015
2030
2035
2046
2047
2062
2063
2064
2064
2064
2064
2055
2059
2047
2039
2033
2032
2023
2019
2010
2002
1998
1991
1984
1973
1968
1967
1963
1953
1948
1943
1936
1939
1934
1933
1925
1922
1921
1907
1904
1895
1890
1883
1875
1875
1870
1862
1862
1858
1849
1841
1840
1840
1836
1831
1830
1829
1833
1827
1835
1831
1835
1844
1835
1839
1840
1841
1847
1847
1852
1857
1856
1859
1859
1860
1855
1861
1866
1871
1867
1866
1868
1869
1865
1859
1856
1855
1854
1846
1844
1840
1843
1840
1835
1840
1828
1831
1829
1817
1814
1809
1817
1820
1816
1811
1808
1808
1806
1807
1807
1803
1803
1798
1807
1791
1794
1806
1804
1798
1794
1789
1799
1792
1790
1803
1789
1791
1794
1791
1798
1795
1794
1796
1799
1799
1794
1802
1802
1799
1795
1799
1798
1798
1798
1795
1789
1794
1797
1799
1801
1787
1789
1794
1787
1790
1785
1791
1793
1797
1791
1789
1794
1795
1786
1793
1793
1791
1792
1787
1793
1790
1785
1790
1789
1787
1782
1785
1786
1787
1786
1781
1782
1782
1786
1790
1779
1790
1791
1781
1788
1781
1789
1795
1804
1809
1811
1824
1843
1850
1859
1873
1885
1909
1925
1941
1953
1970
1997
2005
2018
2031
2046
2065
2079
2081
2086
2096
2096
2098
2102
2102
2097
2091
2086
2079
2067
2064
2062
2042
2034
2029
2021
2014
2007
1999
1985
1985
1979
1975
1970
1963
1954
1953
1946
1947
1936
1936
1934
1925
1921
1910
1915
1905
1898
1884
1877
1878
1872
1866
1859
1850
1851
1843
1840
1854
1826
1830
1831
1824
1825
1822
1831
1828
1831
1829
1834
1839
1844
1841
1843
1840
1854
1850
1853
1863
1858
1866
1866
1862
1865
1865
1872
1870
1869
1867
1865
1866
1857
1855
1856
1845
1843
1853
1840
1835
1827
1831
1821
1821
1817
1810
1813
1808
1807
1805
1803
1801
1799
1803
1794
1798
1802
1806
1800
1805
1796
1799
1796
1795
1793
1794
1808
1799
1801
1793
1791
1792
1797
1793
1789
1782
1790
1787
1781
1780
1776
1778
1780
1776
1779
1776
1777
1783
1783
1786
1779
1789
1787
1780
1786
1781
1789
1789
1792
1788
1781
1787
1786
1782
1786
1785
1790
1787
1786
1786
1778
1783
1783
1776
1776
1774
1776
1777
1776
1776
1767
1776
1777
1779
1776
1779
1777
1780
1781
1780
1781
1783
1785
1787
1780
1789
1791
1798
1798
1808
1810
1815
1829
1840
1854
1862
1878
1901
1911
1931
1947
1971
1989
2003
2025
2034
2059
2073
2087
2095
2098
2102
2115
2133
2119
2113
2115
2113
2109
2103
2095
2087
2082
2075
2065
2045
2046
2032
2022
2013
2003
1991
1985
1983
1970
1962
1963
1964
1957
1945
1937
1941
1937
1925
1927
1913
1915
1910
1904
1901
1885
1889
1882
1872
1867
1855
1858
1855
1851
1846
1842
1847
1842
1843
1838
1839
1847
1855
1846
1849
1851
1854
1860
1855
1862
1866
1869
1872
1877
1875
1872
1879
1877
1879
1877
1876
1875
1879
1871
1872
1870
1872
1870
1870
1859
1853
1857
1854
1850
1849
1843
1843
1840
1830
1827
1823
1825
1825
1814
1817
1808
1811
1814
1808
1807
1806
1806
1807
1803
1795
1794
1798
1802
1793
1791
1787
1792
1791
1797
1797
1794
1787
1795
1794
1794
1787
1792
1788
1786
1791
1782
1789
1790
1781
1786
1781
1787
1787
1783
1791
1785
1788
1783
1791
1776
1785
1781
1781
1782
1775
1774
1779
1779
1781
1783
1776
1778
1783
1785
1778
1775
1778
1776
1776
1767
1766
1767
1767
1773
1769
1773
1775
1778
1780
1779
1780
1793
1803
1808
1809
1812
1833
1841
1850
1869
1878
1904
1919
1936
1962
1968
1991
2007
2027
2038
2061
2080
2095
2106
2122
2128
2132
2135
2145
2143
2145
2151
2143
2129
2127
2111
2107
2098
2092
2087
2069
2065
2059
2047
2033
2032
2028
2017
2011
1999
1995
2000
1989
1990
1982
1975
1977
1969
1963
1954
1950
1938
1933
1930
1919
1907
1904
1895
1886
1872
1861
1865
1854
1844
1840
1835
1836
1838
1831
1834
1823
1833
1833
1831
1827
1831
1835
1829
1842
1847
1842
1855
1871
1860
1861
1862
1865
1867
1872
1871
1867
1872
1873
1872
1871
1866
1863
1867
1863
1862
1853
1850
1841
1840
1840
1828
1837
1838
1824
1819
1815
1814
1810
1804
1808
1803
1807
1807
1803
1799
1795
1795
1789
1786
1783
1781
1781
1784
1779
1776
1773
1772
1776
1769
1771
1767
1771
1771
1760
1763
1760
1766
1771
1766
1765
1761
1775
1773
1776
1776
1771
1767
1774
1772
1774
1767
1776
1776
1776
1774
1773
1776
1777
1773
1774
1774
1776
1777
1776
1786
1776
1776
1776
1771
1773
1771
1768
1774
1765
1765
1764
1769
1765
1766
1761
1765
1767
1765
1755
1756
1759
1762
1767
1771
1776
1777
1789
1798
1808
1823
1837
1865
1872
1890
1907
1924
1949
1974
1991
2013
2030
2047
2069
2090
2107
2119
2137
2151
2155
2159
2160
2163
2167
2165
2165
2155
2155
2145
2135
2128
2111
2107
2098
2089
2071
2067
2063
2047
2045
2031
2018
2031
2007
2000
1994
1991
1984
1983
1973
1968
1958
1956
1959
1941
1927
1923
1919
1907
1901
1897
1885
1877
1872
1863
1859
1844
1841
1842
1837
1830
1827
1831
1831
1833
1831
1829
1830
1839
1832
1837
1838
1840
1845
1842
1846
1847
1850
1853
1852
1846
1842
1840
1842
1847
1844
1839
1843
1840
1838
1835
1835
1834
1839
1825
1822
1821
1814
1811
1808
1807
1802
1798
1797
1792
1788
1777
1781
1777
1776
1776
1765
1765
1769
1766
1763
1760
1759
1759
1755
1762
1758
1768
1766
1760
1762
1758
1766
1775
1772
1772
1767
1775
1774
1769
1770
1759
1765
1761
1769
1766
1763
1769
1762
1770
1759
1751
1761
1762
1765
1759
1759
1762
1769
1763
1758
1752
1759
1755
1755
1756
1747
1754
1758
1755
1749
1749
1754
1762
1755
1755
1756
1755
1751
1754
1751
1756
1749
1755
1755
1750
1744
1755
1755
1755
1746
1750
1755
1760
1761
1765
1762
1775
1778
1786
1792
1793
1807
1819
1833
1847
1867
1879
1903
1919
1941
1961
1987
2004
2023
2047
2064
2082
2096
2103
2113
2115
2127
2133
2133
2127
2127
2126
2126
2115
2111
2099
2099
2095
2083
2080
2063
2055
2043
2032
2027
2007
2003
2001
1999
1994
1981
1975
1971
1968
1963
1947
1946
1935
1936
1923
1915
1915
1907
1895
1885
1871
1870
1869
1857
1842
1835
1831
1826
1814
1809
1805
1813
1810
1808
1809
1808
1808
1812
1813
1815
1815
1819
1819
1825
1833
1827
1840
1847
1847
1846
1851
1854
1858
1855
1856
1849
1858
1855
1853
1854
1849
1850
1845
1841
1839
1830
1827
1829
1822
1821
1813
1810
1808
1803
1798
1786
1787
1786
1783
1778
1774
1777
1776
1776
1776
1765
1769
1773
1770
1766
1761
1765
1771
1762
1763
1759
1763
1773
1770
1774
1772
1782
1777
1779
1776
1771
1776
1776
1776
1776
1773
1770
1776
1775
1774
1772
1774
1773
1770
1767
1763
1766
1772
1767
1763
1761
1764
1759
1761
1762
1760
1759
1765
1759
1754
1751
1762
1756
1757
1749
1749
1745
1749
1757
1744
1744
1749
1753
1749
1746
1749
1755
1749
1753
1757
1757
1767
1770
1775
1778
1778
1801
1807
1814
1829
1838
1863
1879
1904
1918
1934
1966
1983
1999
2011
2030
2047
2063
2078
2081
2087
2096
2096
2099
2099
2097
2101
2102
2095
2085
2071
2068
2064
2047
2038
2032
2025
2023
2015
2010
2000
1998
1990
1983
1975
1965
1962
1967
1953
1943
1934
1935
1933
1930
1915
1904
1904
1899
1892
1877
1862
1868
1857
1857
1840
1840
1830
1823
1818
1811
1808
1810
1814
1808
1810
1809
1811
1808
1812
1812
1815
1826
1829
1833
1839
1834
1840
1843
1840
1839
1840
1846
1847
1845
1841
1831
1840
1835
1827
1829
1824
1823
1828
1818
1810
1807
1808
1813
1808
1803
1795
1806
1795
1789
1793
1790
1789
1789
1783
1777
1778
1774
1779
1774
1772
1769
1773
1767
1764
1767
1761
1771
1767
1766
1767
1754
1761
1758
1759
1756
1757
1755
1759
1760
1753
1746
1754
1749
1750
1749
1746
1747
1751
1751
1747
1743
1751
1756
1758
1749
1753
1753
1756
1748
1757
1753
1752
1751
1754
1755
1744
1757
1757
1754
1755
1744
1753
1753
1762
1757
1755
1756
1761
1755
1759
1746
1750
1751
1751
1751
1745
1751
1755
1751
1755
1754
1763
1769
1774
1779
1787
1799
1811
1824
1837
1851
1877
1892
1904
1919
1936
1967
1975
1989
2000
2011
2032
2042
2047
2061
2058
2063
2064
2066
2063
2061
2064
2059
2057
2047
2032
2029
2027
2015
2005
1996
1994
1983
1979
1969
1955
1955
1959
1949
1943
1941
1936
1936
1931
1922
1911
1911
1914
1902
1902
1888
1887
1879
1873
1870
1861
1858
1854
1843
1845
1839
1835
1831
1833
1829
1821
1823
1823
1818
1817
1808
1813
1819
1819
1815
1823
1826
1830
1834
1834
1827
1839
1836
1837
1839
1838
1841
1840
1840
1841
1847
1842
1840
1847
1839
1833
1839
1833
1823
1823
1821
1824
1822
1825
1822
1811
1809
1808
1806
1806
1796
1791
1790
1791
1783
1785
1785
1776
1776
1771
1773
1771
1772
1769
1770
1765
1767
1770
1765
1763
1758
1763
1767
1763
1770
1769
1767
1767
1765
1763
1770
1770
1765
1769
1769
1757
1767
1762
1773
1769
1770
1765
1765
1765
1760
1759
1767
1767
1761
1760
1755
1761
1758
1759
1755
1755
1761
1759
1759
1757
1754
1761
1759
1754
1757
1755
1762
1759
1764
1770
1769
1777
1781
1783
1787
1793
1807
1818
1826
1842
1846
1867
1879
1892
1908
1922
1943
1952
1969
1975
1988
2000
2012
2018
2020
2029
2032
2041
2037
2037
2035
2039
2032
2029
2023
2010
2006
2007
2000
1991
1981
1979
1968
1965
1959
1950
1947
1943
1936
1930
1926
1925
1923
1910
1911
1905
1901
1899
1889
1886
1872
1872
1867
1857
1850
1843
1840
1841
1835
1835
1822
1828
1825
1826
1825
1817
1823
1821
1822
1819
1817
1823
1822
1819
1823
1814
1827
1820
1822
1825
1824
1834
1840
1839
1839
1840
1843
1841
1846
1840
1840
1853
1844
1845
1840
1834
1840
1835
1836
1834
1823
1826
1823
1829
1819
1825
1819
1815
1808
1808
1801
1807
1798
1798
1797
1789
1791
1789
1789
1789
1778
1777
1777
1778
1775
1775
1775
1776
1773
1770
1767
1776
1776
1774
1776
1774
1776
1777
1777
1776
1776
1778
1777
1779
1781
1776
1783
1780
1776
1778
1772
1778
1775
1774
1767
1767
1764
1761
1765
1758
1750
1754
1753
1755
1757
1751
1763
1757
1758
1758
1758
1761
1768
1759
1759
1767
1770
1773
1777
1777
1780
1791
1801
1808
1825
1834
1846
1870
1872
1890
1901
1915
1926
1939
1951
1959
1979
1986
1995
1998
2000
2000
2012
2017
2016
2010
2016
2017
2014
2002
1983
1991
1996
1981
1980
1970
1966
1966
1951
1943
1938
1933
1931
1921
1915
1904
1905
1899
1893
1887
1881
1886
1879
1873
1870
1858
1861
1851
1851
1845
1838
1837
1837
1832
1824
1824
1826
1819
1818
1817
1813
1813
1813
1813
1818
1820
1823
1819
1823
1827
1821
1831
1827
1826
1834
1830
1840
1840
1840
1840
1839
1840
1839
1836
1840
1840
1846
1842
1838
1839
1838
1838
1838
1829
1827
1827
1831
1828
1823
1815
1814
1819
1810
1813
1808
1807
1808
1803
1797
1798
1795
1793
1797
1790
1790
1788
1778
1782
1776
1775
1767
1783
1779
1780
1778
1776
1777
1777
1776
1781
1776
1778
1777
1780
1779
1776
1782
1781
1781
1776
1776
1777
1782
1778
1777
1771
1783
1787
1781
1779
1776
1781
1783
1776
1776
1775
1776
1778
1776
1775
1771
1776
1776
1781
1777
1775
1778
1776
1775
1776
1776
1776
1787
1783
1787
1781
1791
1799
1799
1803
1808
1824
1831
1840
1857
1860
1878
1888
1894
1910
1924
1936
1946
1953
1965
1971
1985
1989
2000
2000
2000
2002
2000
2000
2000
1987
1993
1986
1975
1974
1964
1968
1962
1951
1949
1936
1939
1935
1924
1920
1914
1911
1904
1905
1904
1895
1901
1897
1890
1887
1875
1882
1872
1869
1866
1863
1863
1855
1850
1851
1841
1842
1844
1840
1835
1829
1833
1833
1829
1836
1826
1835
1833
1833
1831
1828
1835
1835
1840
1840
1839
1845
1842
1840
1840
1840
1842
1835
1842
1840
1838
1840
1843
1838
1835
1833
1837
1837
1833
1830
1822
1830
1827
1834
1826
1823
1826
1823
1822
1814
1813
1820
1821
1811
1810
1810
1813
1808
1807
1801
1799
1809
1802
1799
1801
1799
1793
1795
1794
1795
1794
1798
1796
1791
1796
1793
1794
1797
1791
1787
1787
1791
1794
1787
1787
1782
1791
1786
1789
1785
1791
1786
1780
1779
1778
1776
1785
1791
1783
1785
1788
1790
1787
1789
1787
1790
1787
1785
1783
1789
1783
1789
1793
1792
1792
1790
1793
1796
1799
1803
1808
1825
1833
1835
1845
1855
1869
1885
1898
1897
1911
1922
1933
1943
1951
1967
1969
1974
1985
1985
1984
1993
1999
1999
2002
1987
1995
1995
1983
1983
1974
1971
1974
1966
1956
1954
1953
1947
1936
1933
1925
1929
1921
1919
1917
1905
1910
1906
1899
1895
1884
1891
1889
1883
1876
1871
1866
1863
1859
1853
1847
1845
1838
1839
1826
1823
1830
1825
1825
1821
1822
1825
1830
1828
1826
1824
1823
1825
1823
1824
1822
1833
1840
1835
1839
1836
1840
1847
1842
1845
1843
1850
1847
1851
1847
1840
1852
1849
1846
1838
1840
1840
1834
1838
1832
1821
1823
1821
1821
1813
1813
1812
1815
1808
1808
1805
1806
1802
1803
1805
1804
1803
1803
1795
1797
1796
1797
1797
1792
1795
1791
1788
1795
1790
1788
1785
1790
1789
1786
1791
1786
1790
1791
1791
1791
1789
1794
1790
1791
1785
1785
1789
1786
1785
1789
1783
1791
1786
1783
1785
1779
1787
1786
1786
1788
1781
1791
1787
1788
1790
1783
1789
1789
1786
1787
1789
1783
1791
1795
1791
1792
1799
1801
1805
1805
1809
1819
1824
1828
1840
1842
1856
1864
1867
1876
1885
1895
1911
1911
1922
1934
1941
1948
1959
1961
1955
1971
1979
1973
1968
1968
1968
1969
1969
1959
1959
1959
1953
1956
1954
1945
1949
1939
1936
1931
1927
1927
1917
1917
1911
1910
1915
1905
1905
1901
1888
1894
1891
1886
1883
1872
1874
1872
1860
1855
1857
1854
1847
1843
1840
1834
1837
1830
1823
1822
1813
1824
1817
1818
1821
1818
1818
1816
1813
1823
1825
1830
1825
1827
1831
1830
1835
1829
1837
1839
1831
1837
1840
1840
1836
1840
1840
1840
1839
1837
1834
1837
1836
1834
1829
1829
1836
1827
1829
1827
1825
1829
1825
1823
1819
1811
1819
1822
1811
1808
1813
1808
1809
1802
1807
1801
1803
1806
1803
1798
1788
1796
1794
1799
1791
1789
1793
1791
1791
1791
1785
1791
1793
1792
1792
1790
1792
1798
1797
1791
1797
1794
1801
1802
1798
1797
1803
1797
1808
1804
1801
1802
1803
1802
1807
1798
1800
1802
1797
1797
1799
1798
1795
1800
1798
1794
1800
1794
1786
1787
1782
1785
1790
1789
1781
1783
1788
1788
1791
1789
1789
1797
1807
1809
1811
1824
1831
1842
1851
1855
1863
1878
1890
1894
1904
1911
1921
1934
1935
1947
1945
1949
1952
1955
1954
1953
1957
1955
1953
1951
1946
1943
1950
1939
1936
1934
1934
1921
1911
1910
1913
1911
1904
1899
1895
1897
1898
1888
1888
1885
1879
1879
1879
1879
1872
1865
1869
1863
1872
1857
1848
1847
1845
1840
1837
1835
1835
1835
1826
1830
1825
1830
1829
1827
1826
1826
1829
1831
1825
1829
1834
1831
1836
1837
1836
1835
1840
1840
1845
1841
1845
1845
1842
1844
1841
1841
1841
1847
1845
1840
1845
1840
1840
1840
1838
1833
1831
1834
1827
1821
1823
1827
1822
1821
1820
1817
1818
1815
1810
1811
1811
1815
1814
1811
1809
1808
1808
1808
1808
1808
1803
1808
1808
1802
1804
1803
1805
1807
1802
1795
1798
1803
1799
1798
1803
1798
1791
1808
1805
1801
1805
1808
1808
1802
1805
1797
1798
1797
1801
1795
1798
1802
1801
1801
1799
1793
1805
1795
1794
1794
1791
1801
1795
1795
1791
1795
1795
1796
1792
1791
1791
1793
1795
1797
1793
1795
1801
1797
1799
1806
1808
1811
1815
1812
1817
1825
1839
1840
1842
1852
1855
1861
1876
1885
1884
1897
1907
1913
1919
1933
1936
1946
1951
1956
1951
1951
1957
1962
1962
1957
1953
1958
1950
1951
1943
1945
1939
1936
1936
1935
1914
1911
1913
1906
1907
1904
1904
1895
1902
1897
1890
1890
1891
1883
1875
1874
1881
1873
1869
1868
1865
1861
1865
1856
1850
1853
1846
1841
1837
1839
1842
1836
1840
1840
1835
1830
1840
1834
1831
1834
1834
1836
1837
1839
1842
1841
1843
1843
1844
1840
1837
1853
1850
1846
1847
1849
1855
1854
1856
1854
1854
1858
1855
1849
1847
1852
1851
1856
1851
1846
1847
1850
1849
1845
1842
1835
1840
1840
1838
1834
1827
1829
1828
1826
1814
1817
1824
1818
1811
1808
1807
1815
1809
1808
1805
1805
1808
1808
1808
1808
1805
1809
1808
1809
1811
1807
1808
1806
1808
1811
1808
1813
1812
1812
1809
1809
1813
1808
1808
1808
1802
1806
1807
1808
1807
1799
1804
1799
1798
1801
1798
1805
1805
1807
1803
1801
1803
1804
1808
1799
1803
1796
1795
1799
1792
1793
1801
1799
1801
1804
1801
1807
1810
1815
1819
1826
1840
1849
1859
1863
1873
1885
1895
1903
1906
1916
1923
1931
1936
1946
1953
1957
1963
1965
1959
1967
1968
1967
1971
1963
1955
1962
1955
1952
1949
1947
1947
1941
1935
1935
1927
1924
1917
1917
1917
1911
1917
1904
1903
1898
1891
1901
1895
1895
1890
1883
1886
1889
1875
1875
1872
1870
1868
1862
1863
1858
1855
1844
1840
1840
1834
1840
1843
1840
1836
1840
1839
1840
1842
1835
1839
1841
1842
1840
1840
1845
1847
1847
1840
1847
1851
1853
1859
1854
1853
1854
1865
1863
1866
1858
1854
1858
1854
1850
1854
1848
1855
1849
1844
1841
1840
1841
1839
1835
1836
1827
1838
1830
1827
1823
1823
1826
1829
1834
1827
1829
1824
1829
1823
1815
1819
1822
1819
1819
1818
1821
1819
1818
1814
1813
1810
1813
1808
1809
1808
1807
1813
1808
1808
1810
1808
1810
1805
1816
1811
1808
1818
1801
1810
1810
1810
1817
1808
1807
1805
1808
1807
1808
1803
1795
1795
1799
1801
1795
1798
1794
1806
1803
1798
1798
1802
1808
1806
1802
1805
1802
1805
1806
1808
1803
1796
1808
1805
1801
1808
1807
1809
1811
1807
1811
1818
1823
1840
1831
1840
1850
1857
1865
1878
1875
1891
1902
1908
1917
1922
1929
1937
1947
1954
1959
1962
1967
1967
1971
1968
1966
1967
1964
1963
1962
1957
1955
1950
1941
1939
1935
1937
1936
1923
1919
1915
1919
1909
1909
1906
1895
1904
1895
1893
1889
1879
1883
1876
1875
1871
1859
1862
1862
1859
1853
1851
1850
1846
1841
1839
1841
1842
1841
1839
1840
1840
1839
1840
1840
1840
1841
1842
1840
1840
1840
1839
1840
1840
1840
1840
1837
1840
1842
1843
1843
1845
1847
1847
1846
1851
1846
1847
1847
1847
1845
1843
1843
1845
1841
1840
1840
1843
1845
1849
1843
1838
1840
1839
1839
1830
1827
1830
1823
1829
1831
1829
1833
1834
1826
1825
1830
1825
1829
1823
1818
1811
1820
1817
1818
1810
1803
1810
1809
1808
1808
1809
1808
1813
1813
1806
1807
1809
1814
1808
1803
1807
1808
1808
1803
1810
1809
1808
1808
1807
1801
1803
1806
1808
1806
1802
1808
1809
1811
1808
1807
1806
1806
1808
1807
1805
1799
1806
1807
1805
1803
1803
1805
1797
1797
1795
1792
1798
1798
1793
1847
1847
1830
1775
1844
1850
1839
1773
1829
1824
1826
1827
1824
1823
1825
1835
1833
1843
1853
1855
1858
1862
1872
1874
1886
1894
1899
1911
1911
1917
1918
1921
1929
1934
1936
1929
1943
1943
1941
1947
1939
1938
1940
1936
1934
1931
1925
1925
1914
1910
1910
1909
1904
1904
1903
1899
1898
1895
1888
1891
1882
1883
1884
1883
1879
1875
1872
1871
1863
1863
1858
1862
1853
1855
1846
1841
1834
1838
1839
1840
1837
1834
1838
1831
1830
1827
1827
1839
1831
1839
1839
1837
1840
1838
1839
1840
1840
1843
1840
1840
1840
1843
1845
1850
1840
1836
1849
1854
1846
1843
1846
1842
1843
1845
1843
1843
1840
1840
1840
1837
1829
1835
1837
1837
1833
1829
1825
1824
1825
1823
1818
1823
1825
1825
1821
1821
1817
1817
1814
1813
1808
1809
1812
1808
1805
1808
1808
1808
1808
1808
1807
1808
1813
1809
1809
1808
1810
1814
1810
1808
1808
1814
1817
1808
1811
1808
1808
1808
1811
1809
1808
1809
1806
1808
1810
1803
1808
1809
1806
1808
1808
1808
1808
1803
1807
1808
1808
1808
1808
1808
1808
1804
1808
1802
1808
1805
1807
1807
1804
1808
1804
1803
1808
1808
1808
1799
1802
1808
1808
1813
1805
1819
1811
1808
1811
1813
1811
1821
1825
1822
1830
1833
1843
1846
1847
1856
1872
1881
1887
1893
1899
1904
1915
1917
1927
1931
1935
1938
1939
1936
1937
1933
1937
1931
1931
1933
1931
1936
1929
1931
1925
1921
1922
1913
1915
1909
1904
1909
1906
1901
1896
1891
1898
1890
1879
1875
1872
1875
1872
1871
1866
1860
1870
1869
1857
1855
1853
1857
1855
1845
1843
1839
1840
1840
1837
1837
1834
1834
1834
1833
1834
1838
1840
1840
1840
1840
1841
1847
1843
1846
1845
1841
1853
1851
1850
1851
1851
1858
1852
1853
1859
1855
1865
1855
1849
1850
1847
1842
1840
1839
1834
1829
1831
1831
1830
1827
1827
1823
1825
1819
1819
1821
1818
1820
1813
1809
1815
1819
1813
1808
1808
1813
1808
1812
1809
1811
1814
1815
1814
1815
1815
1818
1814
1812
1812
1815
1810
1819
1821
1823
1822
1815
1819
1813
1821
1817
1818
1819
1818
1813
1813
1815
1824
1811
1817
1813
1810
1811
1811
1814
1808
1815
1817
1815
1811
1809
1810
1813
1813
1808
1811
1813
1809
1808
1808
1809
1808
1811
1811
1808
1808
1808
1808
1805
1808
1808
1808
1810
1810
1809
1808
1808
1810
1808
1809
1802
1807
1808
1817
1818
1813
1820
1834
1831
1839
1843
1854
1862
1869
1873
1875
1888
1907
1904
1904
1904
1917
1925
1935
1927
1932
1934
1937
1936
1934
1931
1931
1930
1924
1925
1929
1922
1930
1921
1918
1910
1907
1911
1904
1904
1904
1899
1903
1893
1896
1893
1889
1887
1889
1887
1883
1879
1881
1875
1874
1872
1870
1872
1869
1866
1853
1863
1858
1856
1847
1845
1844
1849
1841
1841
1840
1840
1842
1841
1840
1840
1850
1850
1846
1847
1845
1843
1851
1855
1853
1851
1853
1856
1853
1855
1850
1842
1847
1850
1857
1853
1846
1854
1849
1847
1840
1847
1850
1844
1843
1843
1842
1846
1843
1840
1840
1833
1840
1834
1835
1835
1829
1830
1829
1825
1825
1823
1830
1827
1819
1823
1822
1822
1821
1823
1816
1824
1824
1824
1821
1817
1820
1821
1820
1817
1817
1812
1815
1814
1821
1808
1812
1819
1811
1810
1807
1810
1814
1809
1805
1804
1803
1808
1807
1802
1808
1808
1808
1809
1809
1803
1807
1819
1806
1809
1808
1808
1812
1808
1808
1805
1808
1808
1808
1808
1807
1810
1813
1817
1811
1811
1815
1814
1811
1808
1808
1807
1808
1808
1809
1810
1811
1817
1813
1820
1817
1822
1827
1827
1837
1840
1844
1857
1855
1867
1871
1872
1885
1890
1898
1903
1905
1921
1926
1926
1930
1936
1943
1941
1943
1951
1951
1957
1951
1955
1951
1947
1949
1942
1939
1935
1933
1934
1926
1931
1920
1919
1925
1914
1917
1904
1904
1902
1905
1899
1891
1888
1894
1889
1886
1878
1877
1879
1874
1872
1869
1862
1858
1855
1857
1854
1856
1856
1847
1847
1845
1845
1851
1843
1840
1852
1845
1850
1850
1851
1847
1855
1858
1859
1858
1857
1854
1861
1861
1865
1857
1860
1866
1866
1866
1858
1859
1859
1854
1855
1857
1853
1857
1853
1857
1849
1851
1850
1851
1852
1845
1840
1843
1840
1840
1837
1830
1839
1836
1834
1831
1830
1838
1839
1838
1833
1831
1838
1827
1831
1830
1829
1825
1823
1827
1821
1823
1822
1822
1818
1818
1823
1826
1815
1815
1819
1815
1822
1813
1811
1814
1814
1824
1815
1814
1810
1811
1819
1814
1811
1813
1813
1819
1814
1811
1814
1814
1822
1817
1815
1815
1821
1818
1817
1814
1813
1817
1822
1817
1818
1815
1819
1822
1819
1821
1812
1817
1820
1814
1809
1811
1810
1817
1818
1815
1810
1811
1818
1815
1811
1814
1815
1811
1819
1818
1810
1813
1823
1815
1820
1825
1826
1840
1846
1846
1854
1866
1876
1885
1893
1904
1905
1923
1929
1936
1936
1951
1963
1968
1971
1968
1968
1975
1971
1969
1967
1965
1968
1965
1965
1959
1955
1956
1950
1945
1939
1938
1936
1930
1935
1921
1921
1918
1917
1909
1909
1903
1904
1902
1898
1894
1891
1893
1888
1891
1885
1879
1882
1877
1872
1870
1861
1862
1857
1855
1856
1853
1853
1854
1854
1846
1845
1850
1856
1848
1845
1843
1856
1850
1855
1855
1852
1866
1858
1863
1862
1859
1872
1867
1862
1862
1857
1863
1862
1866
1863
1862
1870
1867
1866
1857
1856
1861
1856
1851
1851
1851
1847
1850
1850
1841
1841
1850
1841
1840
1839
1841
1841
1840
1841
1835
1837
1842
1837
1835
1840
1838
1838
1835
1833
1830
1837
1839
1840
1839
1834
1835
1840
1831
1834
1824
1825
1829
1829
1822
1826
1827
1834
1826
1826
1827
1825
1828
1822
1828
1818
1813
1829
1827
1822
1820
1823
1827
1823
1822
1815
1822
1822
1815
1819
1815
1823
1826
1821
1818
1819
1825
1822
1821
1815
1817
1817
1829
1820
1818
1810
1817
1815
1811
1809
1814
1813
1820
1811
1810
1813
1819
1828
1826
1826
1822
1834
1837
1840
1845
1849
1858
1873
1885
1891
1892
1904
1919
1924
1938
1946
1951
1961
1969
1975
1978
1987
1994
1986
1991
1986
1990
1991
1986
1987
1982
1978
1978
1983
1969
1963
1966
1959
1952
1953
1946
1938
1937
1936
1933
1926
1921
1923
1919
1919
1911
1909
1904
1903
1898
1895
1891
1891
1891
1886
1875
1875
1874
1871
1872
1867
1861
1858
1857
1855
1850
1846
1855
1852
1853
1858
1854
1856
1853
1855
1855
1843
1865
1873
1869
1871
1870
1873
1873
1874
1869
1870
1875
1871
1871
1871
1870
1872
1872
1869
1870
1870
1871
1863
1859
1853
1853
1854
1853
1846
1847
1847
1846
1842
1843
1837
1837
1840
1839
1840
1838
1831
1831
1831
1830
1825
1829
1830
1821
1827
1822
1824
1827
1831
1819
1820
1822
1825
1819
1821
1821
1821
1824
1821
1819
1815
1824
1820
1818
1823
1815
1818
1820
1821
1823
1822
1819
1823
1821
1815
1817
1815
1819
1821
1822
1819
1819
1824
1822
1825
1814
1815
1818
1819
1822
1813
1813
1809
1810
1809
1805
1807
1813
1810
1808
1808
1806
1809
1808
1808
1808
1809
1814
1811
1810
1807
1810
1815
1815
1822
1813
1829
1838
1841
1842
1855
1872
1883
1897
1904
1910
1927
1938
1949
1963
1966
1973
1984
1985
1994
2000
2003
2007
2007
2014
2015
2012
2004
2005
2005
1995
1997
2001
1987
1985
1975
1969
1973
1966
1963
1949
1950
1951
1943
1936
1934
1927
1926
1927
1922
1913
1905
1916
1919
1904
1901
1890
1897
1891
1887
1875
1877
1875
1869
1866
1859
1863
1855
1853
1854
1842
1842
1845
1842
1846
1847
1845
1850
1847
1859
1853
1856
1859
1855
1863
1858
1868
1871
1870
1872
1863
1870
1873
1872
1871
1872
1865
1869
1872
1868
1860
1859
1863
1852
1850
1853
1847
1845
1850
1846
1840
1841
1852
1847
1840
1838
1839
1839
1840
1840
1832
1830
1830
1829
1827
1827
1821
1824
1822
1817
1814
1811
1818
1816
1815
1813
1813
1818
1809
1808
1808
1809
1814
1806
1808
1808
1807
1810
1808
1808
1802
1808
1809
1808
1808
1803
1805
1799
1802
1807
1807
1807
1808
1805
1805
1805
1805
1808
1803
1808
1800
1803
1813
1808
1805
1797
1805
1806
1808
1804
1799
1803
1806
1803
1803
1803
1799
1803
1806
1801
1805
1806
1806
1808
1805
1803
1815
1809
1811
1808
1811
1815
1822
1823
1823
1824
1834
1843
1842
1851
1856
1870
1879
1890
1907
1911
1927
1936
1947
1947
1955
1975
1985
1987
1995
1999
2001
2007
2011
2015
2011
2013
2010
2010
2009
2001
2003
2003
1994
1990
1981
1984
1982
1979
1970
1959
1965
1965
1959
1958
1939
1939
1938
1939
1937
1929
1925
1927
1922
1911
1908
1907
1904
1895
1893
1882
1875
1877
1870
1867
1864
1859
1861
1853
1840
1842
1845
1847
1847
1849
1840
1842
1842
1840
1838
1839
1843
1851
1851
1845
1847
1859
1863
1859
1862
1860
1862
1866
1863
1860
1861
1862
1867
1866
1865
1854
1857
1863
1857
1853
1859
1855
1856
1854
1846
1840
1846
1846
1839
1840
1837
1839
1829
1833
1823
1822
1815
1821
1815
1813
1806
1808
1811
1809
1810
1808
1812
1812
1808
1808
1798
1796
1799
1798
1798
1799
1805
1808
1807
1802
1804
1808
1809
1808
1801
1795
1799
1806
1806
1803
1807
1802
1805
1805
1807
1803
1806
1808
1802
1802
1794
1801
1805
1799
1803
1799
1803
1803
1805
1804
1795
1799
1804
1807
1799
1798
1803
1808
1806
1803
1799
1807
1809
1803
1802
1798
1803
1802
1803
1806
1798
1800
1795
1799
1790
1791
1795
1801
1794
1792
1790
1798
1803
1797
1799
1799
1808
1817
1815
1825
1829
1840
1853
1857
1872
1885
1898
1910
1927
1935
1935
1949
1959
1968
1979
1983
1991
1998
2003
2007
2003
2014
2014
2015
2011
2003
2005
2005
1999
1997
1987
1983
1983
1975
1968
1962
1953
1953
1941
1939
1936
1935
1935
1934
1931
1921
1918
1919
1906
1904
1897
1898
1892
1887
1888
1872
1871
1872
1862
1859
1851
1847
1847
1842
1840
1829
1826
1834
1831
1835
1831
1833
1833
1831
1839
1840
1840
1841
1845
1840
1840
1845
1852
1846
1847
1849
1850
1851
1850
1855
1850
1847
1845
1855
1853
1847
1847
1847
1843
1845
1845
1843
1839
1840
1826
1824
1828
1826
1822
1821
1817
1817
1817
1811
1808
1811
1808
1808
1806
1807
1805
1802
1806
1805
1807
1806
1803
1807
1804
1801
1794
1807
1808
1799
1808
1799
1802
1807
1799
1799
1795
1798
1805
1801
1797
1792
1806
1804
1791
1801
1797
1795
1798
1795
1796
1795
1799
1798
1804
1795
1791
1792
1793
1795
1787
1791
1790
1792
1791
1791
1789
1786
1790
1795
1797
1786
1793
1797
1793
1793
1792
1792
1790
1794
1799
1796
1795
1795
1794
1793
1789
1796
1800
1799
1796
1786
1794
1799
1795
1798
1796
1797
1806
1801
1803
1807
1808
1821
1823
1834
1842
1850
1862
1872
1873
1883
1904
1913
1923
1934
1938
1947
1963
1966
1981
1979
1985
1987
1989
1986
1987
1991
1994
1989
1990
1980
1973
1973
1971
1969
1963
1962
1953
1951
1950
1937
1936
1932
1923
1919
1910
1917
1917
1919
1912
1906
1905
1907
1902
1903
1891
1890
1895
1887
1878
1878
1873
1872
1870
1860
1849
1849
1847
1837
1840
1835
1827
1833
1824
1825
1823
1823
1820
1822
1819
1818
1823
1825
1830
1827
1828
1827
1837
1839
1842
1829
1829
1831
1838
1840
1838
1840
1837
1838
1831
1835
1832
1838
1832
1840
1831
1830
1835
1829
1824
1821
1824
1822
1822
1815
1818
1818
1819
1818
1815
1808
1811
1808
1808
1808
1808
1808
1808
1807
1802
1797
1799
1802
1799
1797
1798
1798
1806
1805
1805
1796
1799
1806
1799
1795
1790
1797
1799
1801
1795
1791
1793
1791
1793
1797
1790
1799
1794
1791
1795
1795
1802
1802
1803
1805
1801
1802
1803
1801
1801
1795
1805
1801
1793
1795
1792
1791
1798
1801
1795
1791
1795
1796
1795
1787
1783
1789
1794
1795
1783
1778
1789
1791
1785
1786
1776
1782
1786
1782
1786
1779
1786
1792
1783
1789
1791
1794
1791
1796
1788
1783
1791
1796
1796
1799
1800
1809
1817
1825
1831
1839
1841
1854
1860
1873
1877
1901
1905
1917
1925
1923
1943
1952
1957
1965
1968
1969
1979
1982
1975
1975
1983
1982
1980
1971
1971
1969
1967
1966
1957
1947
1941
1947
1937
1936
1933
1925
1926
1921
1917
1914
1918
1917
1906
1904
1902
1903
1904
1893
1894
1891
1887
1887
1881
1884
1873
1878
1875
1872
1865
1853
1855
1846
1845
1840
1837
1838
1840
1834
1831
1830
1831
1834
1833
1833
1826
1831
1834
1835
1835
1823
1839
1838
1836
1838
1833
1838
1838
1840
1840
1831
1840
1842
1842
1839
1838
1840
1840
1838
1840
1833
1833
1837
1830
1829
1825
1829
1823
1823
1818
1819
1825
1819
1817
1814
1808
1811
1811
1811
1807
1803
1808
1810
1810
1809
1806
1808
1808
1808
1808
1795
1806
1808
1805
1808
1801
1808
1810
1808
1807
1805
1807
1808
1802
1799
1795
1808
1806
1805
1806
1795
1800
1804
1797
1799
1794
1796
1793
1794
1790
1790
1787
1788
1787
1783
1779
1786
1785
1785
1789
1783
1787
1793
1789
1795
1787
1797
1799
1791
1790
1790
1794
1797
1797
1799
1793
1801
1802
1797
1797
1791
1803
1803
1801
1801
1796
1799
1803
1795
1803
1797
1801
1806
1804
1797
1803
1805
1802
1807
1806
1812
1806
1805
1805
1801
1801
1808
1812
1812
1820
1825
1835
1840
1841
1841
1851
1867
1875
1879
1894
1905
1914
1921
1935
1938
1943
1955
1965
1964
1964
1963
1970
1973
1968
1971
1967
1968
1968
1959
1957
1951
1957
1950
1947
1941
1936
1936
1931
1927
1921
1911
1910
1910
1906
1903
1895
1901
1899
1889
1892
1878
1883
1876
1881
1867
1864
1853
1854
1854
1855
1846
1851
1845
1845
1839
1838
1836
1840
1839
1840
1838
1840
1838
1838
1837
1837
1840
1840
1840
1837
1837
1842
1842
1841
1840
1840
1843
1843
1843
1840
1840
1843
1850
1845
1840
1840
1842
1841
1845
1843
1840
1841
1851
1840
1835
1835
1840
1840
1839
1839
1837
1840
1834
1830
1829
1823
1832
1825
1822
1817
1815
1815
1818
1823
1814
1809
1811
1817
1808
1806
1805
1809
1808
1808
1808
1809
1811
1809
1806
1808
1808
1808
1808
1811
1808
1805
1807
1811
1806
1808
1801
1811
1815
1812
1807
1806
1810
1809
1807
1813
1801
1807
1808
1805
1807
1802
1809
1808
1807
1809
1801
1806
1808
1805
1808
1803
1807
1810
1808
1805
1806
1807
1807
1803
1806
1798
1807
1802
1805
1805
1794
1797
1797
1794
1793
1790
1795
1792
1792
1789
1791
1791
1799
1792
1797
1791
1795
1798
1793
1798
1802
1809
1811
1813
1815
1820
1826
1825
1834
1840
1845
1852
1862
1878
1887
1893
1904
1917
1922
1938
1937
1947
1954
1957
1963
1959
1971
1972
1967
1969
1968
1968
1966
1963
1962
1959
1952
1949
1950
1943
1935
1939
1936
1929
1921
1919
1922
1915
1915
1907
1907
1907
1904
1898
1894
1894
1890
1890
1885
1882
1875
1877
1867
1867
1862
1855
1852
1851
1844
1851
1841
1843
1841
1841
1840
1839
1840
1840
1840
1840
1840
1840
1839
1837
1843
1836
1842
1844
1842
1840
1840
1845
1849
1846
1851
1840
1843
1847
1846
1846
1842
1853
1845
1850
1847
1851
1858
1849
1851
1847
1842
1851
1849
1846
1845
1835
1837
1835
1827
1831
1827
1827
1833
1829
1829
1823
1837
1829
1823
1823
1818
1823
1821
1819
1818
1820
1820
1821
1820
1808
1815
1810
1814
1814
1809
1803
1808
1802
1808
1806
1794
1803
1803
1805
1808
1799
1806
1809
1808
1807
1808
1809
1809
1809
1807
1808
1817
1813
1811
1809
1807
1809
1809
1808
1808
1808
1810
1813
1809
1810
1808
1810
1808
1808
1806
1807
1808
1807
1802
1803
1804
1808
1807
1805
1806
1797
1802
1807
1801
1803
1796
1805
1805
1807
1808
1807
1808
1813
1809
1808
1808
1812
1813
1814
1817
1813
1815
1820
1828
1835
1834
1840
1847
1856
1863
1867
1879
1884
1901
1909
1914
1931
1933
1942
1950
1950
1963
1967
1968
1971
1973
1977
1973
1970
1973
1966
1968
1965
1959
1952
1951
1949
1951
1938
1934
1930
1923
1931
1918
1911
1910
1905
1913
1909
1902
1898
1895
1894
1894
1895
1889
1890
1887
1877
1875
1872
1873
1870
1870
1862
1859
1857
1849
1850
1842
1839
1840
1838
1839
1839
1829
1834
1840
1831
1838
1827
1840
1840
1840
1840
1840
1840
1840
1840
1838
1843
1845
1846
1847
1846
1847
1851
1861
1854
1845
1854
1849
1847
1851
1852
1845
1851
1850
1846
1850
1842
1844
1844
1841
1837
1835
1834
1835
1835
1826
1836
1834
1830
1825
1830
1831
1834
1831
1825
1818
1822
1819
1821
1811
1811
1808
1813
1811
1817
1811
1813
1819
1819
1813
1806
1812
1813
1809
1809
1808
1808
1809
1811
1815
1809
1811
1808
1811
1806
1808
1808
1808
1810
1808
1808
1808
1808
1805
1808
1808
1808
1815
1807
1808
1808
1803
1808
1806
1805
1805
1808
1810
1809
1810
1808
1808
1809
1809
1808
1808
1808
1808
1809
1808
1809
1808
1809
1809
1807
1808
1807
1808
1809
1808
1807
1808
1809
1808
1808
1808
1805
1812
1809
1811
1815
1815
1823
1827
1831
1841
1840
1850
1861
1865
1873
1889
1904
1907
1919
1926
1933
1939
1948
1952
1957
1962
1967
1973
1969
1971
1975
1983
1975
1972
1968
1968
1966
1968
1965
1959
1955
1954
1949
1946
1937
1934
1931
1918
1918
1909
1910
1905
1904
1894
1894
1895
1899
1890
1886
1886
1887
1887
1879
1873
1872
1872
1872
1871
1862
1871
1858
1857
1850
1842
1841
1840
1840
1836
1837
1831
1834
1837
1829
1831
1829
1828
1831
1831
1833
1838
1835
1840
1840
1841
1840
1843
1842
1847
1849
1845
1835
1853
1845
1851
1855
1853
1858
1854
1851
1855
1849
1858
1854
1844
1853
1850
1853
1845
1843
1843
1845
1843
1843
1842
1838
1831
1838
1830
1828
1827
1823
1827
1826
1824
1825
1822
1825
1820
1814
1810
1819
1817
1814
1813
1812
1817
1819
1823
1813
1811
1808
1811
1808
1809
1810
1808
1814
1809
1811
1809
1808
1808
1807
1808
1807
1808
1809
1811
1809
1808
1808
1813
1814
1810
1823
1811
1815
1817
1812
1819
1810
1813
1810
1809
1807
1807
1813
1808
1808
1809
1799
1815
1807
1804
1808
1806
1808
1808
1807
1806
1806
1810
1808
1815
1809
1805
1809
1808
1808
1805
1812
1813
1820
1821
1821
1835
1837
1840
1851
1856
1857
1877
1887
1899
1904
1919
1922
1936
1937
1948
1961
1968
1971
1983
1979
1983
1993
1988
1986
1988
1986
1981
1983
1982
1971
1968
1966
1963
1959
1954
1947
1953
1945
1939
1937
1933
1931
1925
1919
1915
1913
1911
1905
1904
1900
1894
1900
1887
1887
1883
1874
1883
1875
1873
1872
1872
1865
1870
1857
1853
1849
1846
1854
1847
1842
1839
1844
1840
1838
1839
1839
1841
1840
1845
1841
1839
1846
1843
1849
1850
1851
1854
1849
1855
1851
1847
1855
1856
1851
1851
1853
1859
1851
1847
1851
1849
1855
1866
1855
1845
1851
1855
1851
1847
1850
1850
1843
1843
1843
1840
1839
1840
1841
1840
1834
1835
1835
1836
1830
1829
1827
1831
1827
1822
1819
1818
1820
1814
1809
1814
1818
1819
1813
1809
1805
1808
1810
1808
1810
1808
1807
1811
1810
1810
1808
1809
1814
1814
1811
1809
1811
1815
1814
1813
1810
1822
1808
1806
1813
1814
1813
1814
1811
1813
1814
1815
1823
1821
1820
1809
1819
1821
1822
1814
1817
1817
1819
1813
1812
1821
1823
1827
1822
1820
1814
1814
1819
1815
1813
1818
1814
1821
1820
1813
1821
1823
1833
1839
1834
1839
1844
1853
1857
1865
1873
1882
1890
1904
1910
1919
1935
1947
1955
1968
1970
1969
1975
1980
1983
1986
1989
1994
1994
1995
1985
1983
1984
1978
1974
1969
1963
1962
1953
1954
1947
1942
1939
1936
1927
1925
1919
1920
1915
1907
1907
1904
1904
1903
1893
1893
1891
1889
1890
1887
1873
1878
1878
1872
1870
1865
1859
1857
1857
1853
1854
1847
1846
1851
1849
1846
1845
1851
1849
1840
1842
1842
1851
1851
1857
1855
1849
1854
1854
1856
1855
1856
1862
1871
1861
1859
1858
1861
1865
1855
1857
1861
1865
1856
1857
1857
1849
1850
1844
1843
1842
1851
1851
1845
1840
1839
1839
1839
1839
1836
1835
1826
1827
1827
1829
1827
1819
1829
1815
1821
1820
1822
1822
1823
1822
1819
1818
1821
1815
1814
1815
1825
1821
1822
1818
1815
1814
1823
1814
1814
1819
1819
1809
1818
1818
1818
1817
1814
1816
1810
1813
1811
1818
1809
1808
1806
1807
1813
1809
1810
1806
1808
1812
1814
1808
1808
1808
1810
1815
1813
1808
1805
1808
1804
1807
1794
1808
1810
1808
1802
1808
1799
1805
1807
1803
1804
1802
1809
1808
1806
1795
1812
1813
1815
1820
1827
1825
1833
1839
1857
1847
1856
1872
1872
1886
1894
1902
1917
1922
1936
1943
1950
1959
1965
1968
1978
1979
1988
1984
1985
1990
1989
1991
1988
1982
1983
1977
1978
1971
1975
1967
1963
1955
1954
1951
1945
1937
1936
1936
1934
1935
1926
1931
1927
1919
1914
1914
1918
1914
1904
1903
1899
1904
1899
1898
1889
1886
1887
1875
1881
1872
1867
1867
1858
1858
1857
1851
1854
1852
1845
1845
1844
1853
1850
1849
1845
1847
1852
1850
1849
1843
1849
1851
1855
1858
1855
1855
1857
1862
1859
1859
1857
1860
1859
1860
1855
1853
1859
1855
1849
1845
1845
1855
1845
1841
1840
1839
1840
1840
1840
1835
1835
1839
1839
1833
1831
1828
1833
1831
1831
1831
1826
1835
1826
1825
1817
1821
1824
1820
1821
1818
1815
1823
1819
1813
1813
1815
1819
1819
1814
1810
1808
1813
1809
1807
1807
1806
1808
1805
1799
1798
1799
1798
1799
1806
1803
1799
1809
1809
1807
1808
1809
1815
1810
1809
1806
1807
1808
1808
1806
1804
1808
1811
1811
1809
1812
1813
1815
1810
1813
1809
1814
1821
1817
1812
1809
1809
1812
1808
1808
1802
1797
1803
1798
1799
1795
1797
1798
1795
1801
1793
1796
1798
1803
1807
1808
1809
1823
1825
1825
1840
1842
1854
1869
1879
1889
1903
1915
1926
1934
1936
1954
1967
1973
1983
1983
1983
2000
1995
1998
1998
2000
2007
1999
1999
1999
1987
1991
1990
1981
1973
1971
1971
1965
1959
1953
1956
1955
1952
1953
1943
1939
1939
1934
1936
1927
1920
1925
1919
1919
1911
1910
1907
1904
1904
1893
1893
1891
1885
1877
1869
1870
1870
1863
1857
1850
1850
1855
1854
1851
1841
1846
1853
1840
1840
1840
1839
1842
1847
1840
1841
1847
1857
1847
1854
1851
1855
1863
1917
1904
1863
1859
1915
1905
1879
1850
1904
1883
1885
1874
1873
1870
1861
1850
1849
1850
1840
1845
1840
1835
1827
1823
1821
1822
1814
1814
1810
1820
1814
1809
1811
1810
1814
1806
1813
1809
1805
1813
1814
1808
1808
1802
1808
1810
1807
1810
1809
1813
1809
1809
1810
1811
1808
1809
1810
1802
1809
1813
1808
1807
1808
1803
1808
1808
1809
1808
1808
1809
1811
1809
1808
1811
1819
1813
1808
1808
1814
1809
1809
1813
1814
1820
1819
1815
1813
1807
1810
1817
1811
1809
1810
1808
1815
1808
1807
1801
1803
1808
1808
1808
1795
1798
1801
1798
1799
1799
1806
1807
1808
1806
1803
1806
1813
1808
1807
1808
1810
1819
1822
1836
1831
1840
1851
1854
1870
1879
1890
1906
1918
1929
1936
1949
1962
1968
1983
1984
1993
2003
2000
2001
1999
2001
2000
2000
2000
1991
1987
1997
1985
1982
1974
1968
1967
1965
1959
1951
1948
1947
1946
1937
1932
1934
1936
1930
1922
1915
1907
1917
1907
1904
1899
1899
1896
1890
1885
1878
1875
1872
1867
1867
1867
1858
1851
1847
1845
1837
1833
1839
1839
1837
1842
1837
1838
1839
1840
1840
1840
1847
1846
1841
1845
1844
1853
1846
1853
1851
1855
1859
1863
1861
1855
1855
1861
1857
1859
1859
1859
1862
1859
1857
1853
1855
1855
1849
1845
1841
1837
1842
1840
1838
1831
1830
1837
1831
1834
1840
1825
1829
1829
1830
1821
1820
1824
1825
1818
1813
1811
1811
1813
1808
1808
1811
1814
1811
1811
1808
1808
1808
1808
1805
1805
1809
1813
1811
1806
1803
1808
1808
1806
1806
1803
1802
1806
1803
1806
1805
1808
1807
1808
1804
1803
1805
1808
1808
1799
1801
1807
1808
1807
1810
1807
1807
1809
1808
1807
1808
1808
1808
1808
1806
1801
1801
1806
1802
1797
1797
1801
1803
1798
1798
1795
1799
1799
1807
1797
1801
1798
1803
1795
1795
1795
1802
1795
1801
1806
1805
1807
1814
1821
1824
1830
1839
1846
1859
1872
1883
1904
1910
1918
1933
1938
1950
1967
1968
1974
1975
1989
1996
1999
2000
2000
2003
2007
2001
2000
1990
1994
1995
1990
1983
1982
1971
1968
1963
1959
1956
1954
1951
1950
1936
1931
1927
1927
1923
1922
1911
1905
1913
1908
1904
1892
1894
1895
1885
1883
1873
1874
1873
1871
1863
1866
1865
1866
1857
1855
1847
1850
1842
1844
1843
1837
1839
1840
1840
1841
1840
1845
1843
1840
1842
1846
1850
1850
1849
1844
1843
1851
1857
1856
1859
1858
1857
1860
1859
1858
1855
1855
1855
1850
1850
1845
1844
1840
1841
1840
1840
1838
1840
1840
1833
1823
1828
1827
1826
1823
1825
1822
1825
1821
1817
1814
1813
1808
1811
1808
1804
1799
1802
1794
1796
1798
1802
1804
1799
1804
1797
1805
1802
1795
1803
1801
1799
1802
1807
1805
1803
1802
1807
1799
1802
1797
1801
1801
1801
1804
1807
1805
1811
1808
1802
1799
1808
1808
1808
1809
1812
1810
1819
1821
1815
1807
1809
1812
1815
1815
1813
1808
1809
1808
1808
1808
1809
1813
1808
1808
1810
1805
1806
1799
1798
1799
1797
1795
1791
1791
1787
1794
1801
1793
1793
1791
1795
1799
1795
1797
1794
1799
1808
1810
1808
1808
1811
1824
1829
1839
1842
1855
1872
1876
1889
1897
1915
1929
1936
1953
1952
1968
1981
1984
1991
1993
1998
2000
2000
2003
2000
2000
2003
1998
1990
1989
1983
1985
1979
1974
1963
1959
1955
1953
1950
1938
1934
1931
1933
1927
1918
1917
1920
1911
1907
1905
1905
1919
1904
1901
1894
1893
1893
1884
1885
1878
1877
1872
1872
1871
1858
1859
1859
1858
1852
1850
1843
1846
1844
1847
1849
1845
1846
1845
1842
1843
1850
1847
1847
1856
1846
1847
1853
1854
1857
1849
1851
1857
1861
1855
1854
1854
1855
1859
1851
1847
1850
1857
1845
1846
1840
1840
1842
1841
1835
1839
1831
1830
1830
1828
1833
1830
1831
1827
1827
1819
1822
1825
1819
1818
1813
1811
1810
1818
1809
1814
1811
1810
1814
1813
1811
1808
1814
1808
1815
1808
1810
1815
1809
1808
1808
1808
1809
1808
1803
1808
1806
1807
1807
1803
1803
1804
1808
1808
1807
1807
1805
1808
1808
1808
1806
1808
1813
1808
1807
1808
1807
1808
1806
1807
1806
1808
1808
1808
1807
1808
1813
1808
1808
1803
1807
1809
1806
1807
1802
1801
1806
1807
1799
1803
1802
1801
1803
1797
1803
1803
1797
1798
1798
1797
1793
1803
1802
1802
1803
1807
1807
1813
1819
1824
1824
1831
1840
1845
1862
1867
1875
1893
1901
1918
1920
1936
1945
1951
1953
1969
1980
1985
1990
1999
2001
2003
2011
2003
2005
2000
1997
2005
1997
1983
1981
1977
1975
1971
1970
1963
1957
1955
1949
1945
1941
1938
1935
1931
1919
1917
1915
1913
1911
1902
1898
1903
1897
1887
1882
1877
1876
1874
1872
1866
1857
1855
1858
1850
1851
1841
1834
1839
1837
1831
1826
1838
1840
1840
1841
1841
1840
1841
1841
1847
1845
1854
1855
1855
1852
1851
1855
1861
1863
1858
1863
1858
1865
1863
1867
1855
1855
1859
1857
1862
1857
1855
1858
1851
1846
1841
1847
1845
1845
1847
1840
1840
1840
1830
1836
1836
1827
1827
1825
1821
1817
1817
1821
1822
1811
1810
1808
1818
1811
1817
1809
1809
1812
1808
1810
1810
1807
1803
1806
1800
1801
1803
1808
1808
1806
1802
1806
1795
1808
1805
1803
1808
1809
1803
1807
1803
1801
1807
1806
1806
1802
1807
1801
1803
1808
1805
1802
