1787
1774
1791
1804
1813
1824
1839
1846
1855
1863
1872
1888
1889
1949
1942
1927
1904
1867
1837
1803
1783
1770
1756
1742
1735
1734
1742
1746
1755
1766
1783
1802
1815
1837
1858
1877
1899
1920
1933
1949
1968
1989
2001
2023
2033
2044
2065
2076
2082
2085
2096
2105
2106
2111
2108
2105
2101
2101
2100
2096
2092
2093
2087
2080
2073
2079
2079
2071
2073
2067
2067
2064
2063
2059
2047
2042
2037
2033
2029
2021
2017
2014
2001
1995
1988
1985
1979
1975
1968
1959
1961
1952
1947
1943
1936
1934
1927
1922
1922
1910
1905
1908
1904
1904
1904
1907
1915
1910
1907
1904
1906
1918
1907
1904
1905
1909
1907
1905
1905
1904
1909
1910
1909
1908
1902
1905
1907
1905
1904
1904
1904
1909
1907
1900
1895
1891
1895
1889
1889
1885
1886
1886
1881
1881
1878
1875
1872
1870
1863
1856
1856
1855
1849
1840
1839
1840
1841
1840
1838
1834
1833
1830
1829
1826
1827
1821
1817
1811
1808
1805
1807
1807
1806
1802
1801
1801
1802
1798
1808
1798
1797
1797
1800
1801
1798
1805
1803
1804
1794
1802
1798
1798
1795
1795
1787
1790
1791
1791
1787
1787
1785
1793
1793
1796
1789
1790
1794
1795
1794
1791
1797
1791
1794
1797
1787
1783
1782
1782
1787
1780
1788
1790
1791
1793
1794
1801
1808
1814
1821
1827
1845
1857
1873
1891
1904
1923
1943
1955
1973
1981
1998
2010
2022
2034
2043
2057
2066
2074
2081
2083
2093
2097
2102
2099
2103
2096
2107
2102
2098
2085
2089
2081
2069
2064
2047
2045
2041
2038
2032
2032
2027
2023
2015
2007
2001
1998
1997
1994
1986
1983
1983
1983
1968
1970
1961
1953
1957
1951
1947
1939
1936
1935
1931
1923
1913
1909
1906
1903
1898
1891
1891
1891
1885
1881
1872
1872
1873
1873
1875
1870
1863
1866
1871
1866
1865
1870
1872
1855
1862
1864
1863
1869
1866
1867
1858
1871
1873
1869
1862
1854
1855
1856
1852
1846
1839
1840
1840
1830
1826
1822
1827
1820
1822
1823
1814
1814
1814
1814
1813
1809
1808
1807
1806
1800
1799
1803
1798
1791
1790
1778
1777
1776
1776
1775
1770
1766
1774
1768
1765
1765
1766
1767
1773
1772
1769
1766
1770
1772
1773
1770
1770
1775
1774
1771
1766
1766
1771
1774
1776
1773
1779
1777
1779
1778
1772
1773
1776
1776
1776
1776
1777
1776
1776
1776
1771
1770
1772
1773
1764
1759
1758
1762
1762
1761
1755
1758
1755
1749
1750
1750
1754
1754
1754
1749
1745
1747
1751
1755
1755
1755
1767
1777
1785
1794
1805
1814
1826
1837
1842
1853
1869
1881
1893
1904
1911
1927
1942
1955
1968
1978
1986
2000
2002
2007
2009
2019
2022
2021
2025
2019
2026
2021
2018
2018
2007
2010
2010
2006
2000
1997
1991
1988
1983
1983
1975
1968
1967
1964
1958
1953
1953
1951
1948
1949
1946
1946
1939
1936
1930
1923
1923
1920
1919
1906
1904
1906
1899
1891
1885
1872
1871
1863
1858
1853
1843
1841
1843
1843
1841
1840
1841
1842
1840
1840
1839
1840
1841
1840
1838
1837
1841
1841
1840
1839
1834
1835
1834
1834
1834
1831
1839
1841
1839
1838
1838
1838
1835
1822
1827
1823
1828
1829
1819
1808
1808
1808
1803
1794
1797
1793
1801
1796
1801
1799
1794
1801
1800
1792
1794
1791
1795
1793
1789
1785
1779
1786
1789
1789
1781
1776
1776
1773
1771
1775
1776
1777
1777
1778
1775
1771
1775
1773
1767
1765
1763
1769
1766
1766
1760
1763
1763
1764
1760
1759
1759
1761
1765
1763
1757
1748
1754
1755
1754
1754
1751
1754
1753
1750
1751
1751
1747
1747
1750
1750
1747
1758
1751
1749
1747
1749
1751
1747
1745
1744
1744
1745
1750
1744
1744
1738
1733
1742
1740
1739
1730
1727
1727
1730
1729
1737
1744
1745
1744
1761
1755
1760
1761
1766
1775
1778
1795
1808
1808
1817
1821
1837
1847
1862
1871
1872
1887
1897
1904
1905
1910
1922
1925
1934
1936
1934
1943
1949
1947
1939
1937
1936
1938
1939
1935
1934
1935
1929
1929
1920
1911
1914
1908
1910
1903
1903
1905
1901
1893
1887
1877
1876
1873
1874
1873
1872
1872
1870
1867
1862
1861
1865
1862
1859
1856
1849
1849
1845
1840
1838
1836
1831
1829
1828
1830
1822
1824
1824
1823
1819
1813
1815
1813
1814
1809
1810
1812
1815
1818
1819
1815
1821
1823
1825
1822
1823
1829
1831
1827
1822
1821
1826
1830
1828
1834
1828
1831
1831
1827
1823
1810
1813
1815
1808
1807
1807
1808
1805
1802
1798
1795
1796
1795
1795
1793
1790
1792
1786
1789
1786
1782
1788
1782
1782
1783
1776
1782
1788
1783
1778
1776
1777
1776
1776
1776
1774
1776
1778
1776
1780
1778
1786
1787
1777
1781
1776
1778
1787
1782
1779
1778
1784
1778
1779
1778
1778
1781
1779
1776
1776
1773
1776
1778
1775
1772
1765
1770
1770
1774
1775
1765
1762
1759
1757
1751
1751
1759
1753
1751
1749
1746
1753
1751
1749
1749
1748
1749
1753
1755
1757
1758
1763
1767
1771
1771
1775
1779
1789
1794
1798
1807
1813
1815
1824
1834
1838
1846
1851
1859
1865
1871
1875
1886
1884
1888
1889
1895
1895
1897
1900
1899
1901
1902
1902
1895
1907
1891
1893
1889
1889
1888
1895
1893
1893
1890
1883
1882
1877
1872
1872
1866
1870
1869
1863
1861
1856
1859
1860
1861
1854
1855
1847
1849
1845
1846
1840
1847
1840
1841
1834
1827
1829
1829
1818
1814
1806
1807
1805
1802
1802
1804
1808
1808
1808
1808
1805
1810
1813
1819
1819
1813
1814
1818
1813
1811
1809
1818
1818
1825
1829
1824
1825
1830
1825
1826
1825
1826
1829
1824
1821
1825
1827
1825
1822
1821
1821
1819
1822
1819
1812
1811
1810
1812
1807
1810
1808
1809
1814
1807
1806
1798
1801
1795
1791
1785
1785
1789
1783
1782
1776
1779
1778
1779
1778
1780
1781
1785
1788
1789
1786
1783
1786
1791
1785
1785
1787
1786
1794
1793
1787
1786
1787
1785
1780
1776
1777
1779
1775
1774
1774
1773
1767
1763
1771
1770
1763
1763
1769
1763
1767
1764
1764
1772
1767
1763
1765
1766
1775
1776
1774
1774
1783
1777
1776
1781
1777
1776
1777
1775
1772
1771
1777
1776
1774
1774
1775
1780
1783
1789
1791
1798
1804
1813
1819
1827
1835
1847
1853
1856
1865
1871
1885
1893
1893
1898
1900
1904
1901
1904
1904
1904
1906
1905
1906
1902
1895
1895
1894
1885
1878
1874
1872
1867
1859
1856
1851
1855
1855
1853
1850
1849
1851
1843
1843
1858
1840
1844
1840
1840
1839
1837
1841
1835
1837
1833
1831
1838
1838
1840
1837
1832
1837
1834
1831
1830
1824
1833
1827
1839
1823
1824
1827
1826
1823
1823
1829
1835
1837
1839
1839
1840
1836
1840
1841
1840
1840
1845
1844
1841
1840
1837
1835
1834
1834
1829
1826
1830
1830
1819
1814
1812
1818
1813
1814
1811
1809
1811
1811
1810
1808
1808
1808
1805
1802
1806
1801
1803
1801
1799
1795
1797
1795
1795
1801
1794
1795
1794
1798
1799
1795
1792
1794
1800
1789
1788
1791
1795
1793
1796
1795
1797
1799
1803
1797
1793
1794
1798
1796
1789
1791
1791
1788
1785
1791
1787
1787
1786
1790
1786
1781
1788
1787
1783
1786
1783
1779
1787
1790
1788
1790
1792
1801
1808
1794
1792
1794
1795
1794
1795
1788
1791
1791
1793
1790
1787
1793
1796
1795
1793
1794
1797
1802
1804
1802
1797
1787
1797
1796
1798
1793
1793
1801
1803
1803
1803
1810
1822
1822
1824
1825
1831
1838
1846
1849
1851
1860
1871
1872
1875
1878
1878
1886
1887
1887
1891
1890
1894
1899
1895
1891
1895
1898
1898
1893
1893
1893
1899
1893
1893
1883
1881
1881
1873
1874
1872
1867
1870
1863
1863
1858
1854
1855
1857
1857
1851
1852
1854
1851
1856
1851
1853
1846
1851
1846
1840
1840
1845
1840
1839
1837
1836
1839
1830
1834
1823
1822
1822
1824
1826
1830
1835
1840
1835
1827
1831
1831
1831
1831
1828
1831
1831
1839
1830
1833
1826
1831
1835
1831
1833
1828
1834
1838
1839
1839
1837
1840
1842
1841
1845
1843
1840
1850
1847
1851
1843
1847
1847
1835
1840
1835
1831
1834
1831
1829
1829
1833
1831
1823
1823
1817
1811
1815
1821
1821
1813
1810
1814
1811
1809
1808
1809
1818
1813
1809
1809
1809
1810
1812
1808
1802
1807
1808
1807
1809
1809
1805
1806
1808
1808
1805
1803
1804
1802
1806
1806
1803
1804
1811
1806
1805
1804
1808
1808
1806
1802
1805
1805
1808
1808
1809
1808
1815
1810
1814
1811
1818
1821
1814
1818
1819
1815
1820
1818
1819
1811
1809
1815
1810
1808
1808
1811
1813
1811
1810
1806
1815
1821
1822
1818
1813
1818
1823
1822
1824
1834
1831
1834
1833
1837
1840
1855
1863
1867
1872
1872
1875
1884
1883
1879
1879
1887
1890
1888
1883
1879
1884
1888
1888
1887
1890
1885
1889
1883
1881
1877
1877
1878
1872
1872
1873
1872
1872
1872
1861
1863
1857
1859
1857
1855
1853
1857
1862
1854
1853
1850
1850
1851
1852
1846
1843
1845
1845
1843
1843
1840
1841
1841
1842
1840
1842
1841
1842
1845
1843
1841
1840
1840
1840
1845
1840
1839
1845
1841
1842
1842
1840
1841
1844
1845
1845
1842
1843
1844
1845
1842
1842
1843
1841
1842
1841
1842
1841
1840
1841
1841
1840
1841
1840
1835
1837
1840
1839
1840
1839
1833
1830
1831
1831
1827
1825
1822
1825
1831
1827
1823
1817
1821
1819
1820
1818
1817
1815
1818
1810
1808
1809
1819
1811
1808
1808
1810
1812
1815
1813
1808
1817
1819
1815
1814
1809
1808
1811
1811
1815
1815
1823
1823
1821
1821
1821
1814
1821
1815
1818
1809
1814
1822
1825
1821
1814
1817
1822
1819
1817
1821
1817
1822
1815
1813
1809
1814
1822
1818
1818
1817
1817
1819
1815
1815
1814
1813
1825
1822
1817
1809
1809
1811
1814
1811
1808
1809
1814
1815
1819
1819
1819
1827
1828
1827
1824
1827
1834
1840
1843
1840
1842
1855
1859
1863
1872
1872
1879
1882
1885
1884
1881
1894
1894
1893
1894
1895
1897
1898
1898
1893
1891
1892
1891
1886
1881
1879
1879
1872
1872
1870
1871
1871
1869
1859
1859
1859
1862
1858
1856
1857
1859
1862
1861
1856
1855
1859
1867
1859
1855
1854
1849
1854
1847
1847
1845
1846
1842
1842
1840
1838
1840
1834
1839
1834
1834
1835
1839
1840
1845
1841
1842
1846
1843
1841
1840
1846
1849
1853
1854
1847
1847
1849
1847
1847
1843
1849
1851
1851
1855
1847
1851
1850
1847
1849
1843
1850
1854
1850
1853
1846
1846
1852
1851
1851
1841
1845
1845
1839
1840
1831
1826
1827
1822
1823
1818
1820
1823
1823
1826
1821
1824
1824
1825
1827
1830
1826
1838
1834
1833
1831
1831
1838
1834
1831
1831
1834
1836
1830
1827
1824
1829
1830
1830
1825
1815
1835
1830
1828
1827
1824
1823
1823
1834
1834
1825
1825
1825
1821
1818
1815
1819
1826
1821
1821
1819
1824
1827
1829
1823
1821
1823
1829
1823
1818
1819
1819
1827
1825
1818
1818
1821
1824
1823
1826
1819
1826
1828
1829
1830
1831
1827
1843
1842
1842
1848
1854
1863
1859
1867
1863
1867
1872
1874
1875
1875
1878
1883
1891
1889
1888
1894
1901
1904
1904
1904
1904
1906
1904
1902
1899
1893
1898
1891
1890
1887
1885
1885
1886
1882
1879
1878
1879
1879
1877
1872
1872
1878
1875
1875
1871
1875
1882
1877
1879
1876
1873
1877
1873
1875
1872
1872
1871
1870
1871
1863
1867
1871
1869
1870
1870
1868
1869
1871
1867
1865
1863
1870
1871
1869
1863
1869
1870
1867
1866
1867
1870
1872
1859
1863
1866
1863
1870
1868
1865
1859
1860
1863
1858
1857
1854
1859
1857
1860
1866
1855
1861
1864
1860
1860
1851
1855
1857
1857
1852
1851
1855
1851
1845
1845
1840
1840
1838
1833
1828
1830
1833
1829
1831
1833
1829
1834
1839
1829
1828
1821
1829
1831
1824
1827
1825
1834
1833
1833
1830
1828
1833
1840
1840
1838
1840
1840
1839
1840
1840
1837
1839
1841
1840
1840
1840
1842
1844
1841
1847
1843
1846
1850
1855
1846
1843
1853
1853
1850
1851
1847
1853
1856
1855
1847
1840
1840
1845
1842
1843
1837
1837
1836
1835
1836
1833
1838
1838
1840
1839
1839
1840
1846
1837
1846
1844
1845
1853
1855
1861
1859
1866
1872
1878
1881
1883
1886
1890
1898
1897
1893
1895
1901
1904
1903
1898
1902
1906
1905
1904
1902
1905
1907
1904
1904
1904
1909
1910
1905
1904
1903
1904
1903
1904
1901
1901
1904
1902
1901
1901
1901
1899
1898
1901
1899
1891
1889
1890
1887
1885
1891
1885
1888
1882
1881
1874
1877
1875
1872
1872
1867
1871
1869
1863
1862
1860
1860
1859
1862
1862
1859
1859
1859
1863
1859
1856
1861
1857
1861
1866
1861
1865
1864
1865
1866
1862
1868
1867
1861
1865
1861
1865
1863
1865
1862
1867
1867
1869
1865
1863
1858
1863
1867
1862
1863
1849
1863
1863
1858
1855
1850
1853
1861
1854
1859
1852
1855
1855
1847
1854
1850
1852
1855
1853
1850
1846
1849
1847
1845
1849
1840
1841
1840
1840
1841
1840
1842
1843
1840
1840
1831
1842
1841
1841
1841
1838
1842
1841
1845
1846
1840
1843
1839
1849
1845
1840
1839
1839
1840
1838
1833
1837
1834
1829
1830
1823
1828
1837
1833
1836
1833
1835
1840
1837
1841
1840
1837
1834
1837
1838
1826
1840
1838
1840
1840
1838
1840
1840
1843
1843
1839
1849
1851
1856
1857
1858
1872
1872
1873
1877
1879
1890
1890
1891
1897
1895
1904
1909
1906
1905
1905
1907
1913
1910
1915
1913
1916
1918
1919
1913
1911
1910
1909
1907
1909
1904
1904
1904
1898
1895
1894
1897
1893
1887
1886
1879
1887
1882
1901
1883
1877
1881
1882
1883
1885
1879
1883
1886
1890
1883
1874
1879
1881
1878
1872
1867
1872
1872
1872
1871
1866
1870
1872
1867
1871
1862
1869
1869
1871
1871
1872
1870
1872
1869
1872
1868
1871
1871
1869
1867
1853
1865
1866
1865
1865
1865
1872
1873
1871
1867
1867
1871
1874
1872
1872
1872
1872
1872
1867
1862
1863
1869
1863
1861
1863
1866
1867
1866
1859
1859
1856
1856
1859
1850
1846
1849
1847
1851
1853
1853
1847
1850
1854
1855
1855
1851
1853
1855
1855
1857
1853
1859
1861
1857
1855
1855
1854
1854
1850
1850
1843
1849
1849
1849
1849
1846
1850
1851
1845
1847
1842
1846
1845
1842
1843
1840
1842
1840
1843
1839
1839
1840
1840
1840
1839
1837
1837
1840
1838
1840
1831
1831
1834
1831
1829
1825
1827
1825
1825
1827
1823
1824
1831
1823
1823
1831
1839
1840
1840
1847
1846
1851
1855
1856
1862
1863
1872
1872
1873
1883
1882
1890
1893
1898
1895
1899
1904
1905
1906
1909
1904
1916
1913
1915
1917
1917
1923
1920
1915
1906
1904
1905
1907
1909
1903
1903
1904
1903
1902
1895
1889
1890
1890
1885
1885
1879
1881
1872
1876
1874
1872
1872
1874
1877
1873
1872
1878
1877
1878
1881
1879
1878
1878
1882
1875
1874
1883
1874
1872
1869
1871
1872
1872
1872
1862
1863
1870
1871
1871
1865
1867
1865
1866
1870
1870
1871
1875
1880
1876
1874
1872
1875
1872
1870
1871
1870
1867
1867
1870
1871
1870
1871
1872
1869
1867
1867
1870
1865
1869
1865
1865
1867
1867
1869
1867
1867
1872
1872
1872
1867
1860
1861
1861
1863
1859
1855
1859
1857
1853
1845
1846
1842
1841
1845
1840
1836
1837
1840
1839
1831
1840
1841
1841
1840
1840
1837
1841
1841
1840
1840
1841
1845
1856
1855
1855
1855
1856
1860
1863
1857
1858
1859
1860
1859
1852
1855
1858
1856
1854
1854
1852
1850
1858
1853
1844
1841
1840
1842
1838
1838
1837
1840
1840
1840
1846
1840
1851
1853
1854
1854
1855
1858
1866
1869
1868
1868
1874
1881
1878
1885
1889
1891
1895
1895
1900
1897
1911
1919
1913
1907
1906
1915
1918
1915
1914
1915
1919
1915
1915
1911
1913
1915
1911
1915
1919
1910
1910
1918
1907
1907
1903
1905
1904
1902
1902
1895
1897
1891
1889
1886
1887
1889
1885
1887
1878
1879
1893
1889
1887
1887
1886
1889
1890
1894
1887
1887
1890
1888
1885
1875
1874
1881
1875
1875
1874
1872
1875
1875
1872
1869
1869
1872
1872
1869
1869
1858
1871
1866
1869
1869
1867
1867
1868
1868
1869
1871
1869
1870
1863
1866
1863
1869
1872
1866
1861
1858
1863
1862
1861
1867
1859
1857
1859
1850
1863
1858
1867
1863
1856
1855
1857
1856
1861
1861
1856
1851
1855
1854
1847
1851
1849
1851
1855
1850
1847
1846
1854
1855
1854
1845
1840
1840
1840
1840
1840
1837
1840
1843
1840
1838
1837
1846
1843
1843
1850
1848
1855
1857
1853
1853
1853
1858
1857
1853
1854
1855
1852
1846
1848
1841
1839
1845
1842
1842
1841
1840
1843
1841
1841
1839
1839
1833
1847
1842
1842
1835
1840
1840
1840
1843
1847
1851
1853
1857
1859
1865
1871
1873
1879
1886
1893
1904
1905
1907
1914
1914
1921
1922
1920
1926
1926
1927
1930
1933
1930
1927
1930
1927
1931
1925
1925
1922
1919
1915
1914
1913
1909
1907
1904
1904
1901
1901
1904
1901
1901
1895
1906
1904
1903
1902
1904
1903
1904
1904
1903
1902
1903
1902
1899
1899
1904
1903
1898
1894
1895
1893
1893
1893
1890
1883
1877
1886
1885
1883
1883
1881
1885
1883
1889
1886
1886
1890
1886
1887
1886
1887
1891
1893
1893
1889
1881
1888
1887
1883
1879
1875
1877
1875
1873
1873
1872
1872
1874
1871
1872
1872
1872
1873
1873
1872
1872
1872
1867
1872
1871
1872
1877
1872
1871
1867
1870
1868
1867
1861
1861
1863
1866
1867
1859
1857
1856
1857
1861
1854
1854
1844
1846
1847
1847
1849
1847
1855
1849
1850
1849
1851
1851
1854
1854
1851
1849
1855
1853
1857
1854
1853
1852
1849
1849
1850
1846
1844
1849
1846
1841
1840
1842
1851
1849
1851
1847
1853
1846
1847
1842
1841
1843
1843
1840
1840
1835
1840
1840
1842
1840
1839
1842
1842
1839
1838
1833
1838
1840
1838
1840
1837
1838
1837
1835
1835
1831
1837
1837
1838
1839
1841
1849
1854
1861
1870
1869
1875
1886
1885
1887
1892
1903
1905
1911
1916
1922
1933
1936
1936
1932
1935
1935
1945
1938
1935
1936
1936
1935
1936
1927
1929
1935
1925
1917
1917
1915
1917
1915
1917
1915
1915
1915
1915
1915
1914
1907
1911
1909
1908
1904
1904
1906
1904
1901
1895
1894
1897
1891
1889
1891
1887
1891
1890
1890
1885
1878
1885
1885
1878
1877
1878
1883
1885
1881
1874
1873
1878
1882
1876
1873
1875
1874
1873
1875
1871
1874
1876
1872
1872
1871
1871
1872
1872
1872
1871
1872
1877
1872
1881
1873
1873
1875
1874
1875
1873
1881
1879
1881
1875
1872
1875
1872
1872
1872
1871
1869
1869
1865
1863
1859
1862
1861
1856
1858
1855
1853
1861
1860
1857
1854
1855
1861
1851
1857
1857
1853
1859
1855
1851
1845
1845
1851
1847
1841
1844
1841
1843
1843
1844
1841
1847
1857
1851
1847
1846
1850
1849
1844
1846
1840
1843
1846
1844
1840
1837
1840
1840
1839
1830
1835
1840
1838
1839
1840
1840
1840
1845
1840
1838
1836
1831
1840
1837
1838
1834
1835
1837
1839
1834
1839
1839
1834
1834
1837
1833
1833
1833
1835
1834
1827
1828
1835
1837
1837
1840
1837
1842
1846
1843
1843
1848
1857
1862
1864
1870
1872
1878
1879
1886
1889
1897
1904
1907
1913
1917
1923
1924
1924
1927
1921
1922
1929
1934
1931
1927
1927
1931
1925
1926
1925
1926
1929
1923
1925
1919
1919
1919
1909
1905
1904
1904
1904
1902
1903
1893
1890
1893
1891
1890
1886
1884
1882
1877
1873
1872
1871
1877
1875
1873
1872
1873
1883
1879
1879
1878
1877
1883
1881
1882
1883
1883
1885
1884
1882
1883
1879
1887
1877
1875
1875
1872
1878
1883
1875
1874
1875
1882
1879
1873
1867
1871
1871
1872
1869
1869
1865
1872
1871
1871
1868
1872
1872
1872
1872
1877
1872
1875
1879
1875
1871
1872
1865
1859
1855
1855
1854
1858
1855
1856
1846
1841
1846
1845
1843
1843
1849
1846
1844
1844
1842
1843
1853
1850
1846
1841
1845
1852
1846
1845
1847
1853
1855
1858
1855
1851
1850
1855
1859
1855
1854
1859
1855
1850
1842
1840
1840
1843
1839
1839
1831
1835
1835
1829
1828
1825
1826
1827
1829
1830
1828
1828
1828
1822
1824
1822
1819
1821
1822
1822
1818
1815
1826
1822
1821
1822
1822
1827
1833
1832
1836
1837
1839
1836
1836
1833
1831
1838
1839
1840
1839
1842
1850
1852
1860
1859
1869
1872
1872
1872
1876
1878
1892
1899
1904
1903
1905
1910
1911
1911
1914
1920
1923
1923
1933
1925
1930
1935
1937
1936
1936
1935
1936
1936
1933
1930
1927
1930
1921
1919
1913
1911
1915
1909
1906
1904
1906
1911
1907
1909
1908
1904
1906
1904
1904
1903
1901
1901
1899
1898
1894
1894
1893
1894
1897
1887
1885
1889
1886
1883
1872
1877
1881
1873
1873
1867
1868
1872
1872
1869
1870
1870
1872
1869
1872
1872
1874
1869
1866
1859
1859
1870
1867
1871
1872
1872
1872
1872
1871
1872
1870
1868
1875
1872
1867
1866
1866
1869
1866
1866
1863
1863
1865
1866
1859
1855
1857
1861
1861
1859
1859
1861
1862
1862
1855
1850
1846
1859
1858
1856
1849
1850
1853
1855
1846
1846
1840
1846
1840
1840
1840
1840
1845
1841
1840
1837
1835
1840
1840
1840
1831
1839
1840
1835
1831
1827
1829
1831
1837
1828
1830
1830
1835
1839
1838
1836
1833
1835
1840
1838
1835
1837
1840
1840
1841
1839
1841
1842
1840
1840
1840
1840
1841
1841
1840
1833
1838
1837
1840
1835
1835
1831
1833
1833
1833
1827
1826
1834
1828
1829
1819
1823
1824
1823
1824
1819
1821
1827
1822
1823
1821
1827
1833
1834
1830
1835
1840
1846
1854
1856
1863
1869
1877
1878
1877
1886
1889
1895
1902
1902
1903
1904
1911
1910
1918
1918
1921
1922
1915
1918
1917
1918
1917
1915
1913
1911
1907
1906
1904
1901
1895
1897
1899
1890
1893
1886
1894
1895
1891
1890
1877
1885
1882
1881
1879
1875
1875
1879
1883
1877
1874
1879
1879
1872
1872
1867
1870
1872
1873
1870
1861
1863
1872
1871
1862
1862
1862
1872
1865
1865
1865
1861
1869
1863
1859
1857
1857
1861
1861
1857
1858
1856
1855
1857
1861
1857
1859
1857
1859
1849
1846
1843
1846
1849
1847
1845
1846
1846
1843
1840
1841
1846
1847
1850
1851
1847
1852
1856
1858
1855
1851
1854
1855
1856
1857
1855
1853
1856
1857
1854
1856
1862
1857
1855
1851
1855
1857
1856
1857
1854
1850
1854
1859
1853
1851
1847
1841
1845
1841
1846
1840
1840
1843
1842
1834
1834
1838
1837
1835
1831
1825
1822
1825
1823
1821
1821
1823
1827
1819
1821
1819
1824
1826
1829
1802
1871
1866
1841
1795
1871
1866
1855
1806
1856
1853
1845
1835
1840
1835
1829
1827
1825
1829
1825
1823
1815
1815
1813
1808
1808
1806
1807
1808
1807
1804
1801
1802
1808
1808
1808
1808
1808
1815
1815
1817
1821
1831
1834
1838
1840
1847
1854
1862
1868
1872
1877
1877
1887
1891
1892
1894
1899
1904
1905
1907
1906
1908
1915
1911
1914
1907
1910
1907
1904
1904
1904
1902
1904
1897
1895
1888
1895
1893
1893
1893
1889
1891
1893
1894
1894
1889
1885
1881
1885
1883
1876
1881
1881
1873
1877
1871
1871
1871
1870
1867
1871
1870
1872
1869
1865
1863
1863
1869
1871
1862
1861
1862
1866
1862
1862
1860
1858
1859
1863
1867
1866
1868
1871
1867
1868
1866
1865
1872
1871
1868
1867
1866
1871
1869
1868
1866
1862
1871
1862
1858
1855
1853
1854
1855
1843
1846
1853
1855
1854
1856
1855
1858
1859
1856
1855
1853
1850
1847
1850
1844
1844
1847
1847
1846
1841
1840
1841
1837
1839
1837
1833
1838
1837
1831
1830
1829
1827
1828
1831
1830
1823
1827
1829
1827
1831
1829
1835
1837
1834
1837
1834
1837
1835
1834
1838
1836
1839
1842
1843
1840
1843
1841
1845
1841
1842
1837
1837
1840
1838
1831
1830
1828
1829
1827
1826
1823
1827
1830
1827
1824
1821
1831
1829
1834
1826
1830
1835
1840
1842
1843
1847
1853
1855
1859
1860
1858
1866
1871
1883
1875
1872
1882
1891
1889
1889
1891
1901
1905
1904
1905
1907
1906
1919
1911
1913
1911
1917
1919
1923
1910
1911
1914
1909
1911
1909
1904
1904
1904
1904
1903
1894
1893
1888
1889
1889
1879
1882
1890
1891
1894
1889
1890
1889
1890
1890
1883
1887
1888
1887
1885
1881
1883
1883
1877
1873
1873
1869
1872
1871
1872
1870
1872
1877
1872
1871
1865
1870
1870
1870
1877
1866
1867
1863
1869
1867
1864
1867
1867
1863
1862
1867
1874
1874
1872
1872
1872
1872
1872
1867
1869
1866
1869
1867
1867
1865
1867
1866
1861
1866
1857
1853
1855
1859
1862
1857
1856
1857
1869
1857
1853
1853
1852
1857
1850
1843
1843
1843
1841
1840
1840
1832
1837
1840
1838
1837
1834
1838
1837
1834
1834
1837
1840
1840
1840
1837
1838
1840
1840
1840
1842
1843
1849
1849
1851
1850
1851
1847
1854
1853
1855
1852
1851
1850
1849
1849
1847
1852
1854
1845
1840
1836
1840
1838
1838
1834
1830
1836
1836
1838
1826
1825
1824
1826
1827
1829
1822
1827
1819
1826
1831
1827
1830
1836
1837
1840
1840
1841
1853
1865
1859
1858
1865
1871
1875
1881
1887
1897
1898
1900
1903
1903
1903
1913
1915
1910
1908
1915
1918
1917
1923
1916
1919
1919
1918
1911
1910
1909
1906
1904
1907
1904
1911
1907
1905
1905
1903
1907
1908
1907
1913
1909
1915
1915
1914
1909
1909
1911
1909
1905
1907
1904
1904
1904
1901
1889
1892
1891
1893
1890
1890
1886
1885
1885
1883
1881
1879
1884
1883
1877
1872
1869
1869
1873
1871
1872
1867
1871
1871
1872
1869
1872
1870
1872
1873
1872
1867
1872
1871
1871
1867
1863
1867
1869
1865
1869
1860
1864
1869
1869
1870
1866
1872
1871
1869
1869
1863
1866
1863
1863
1865
1865
1866
1864
1857
1856
1847
1857
1859
1857
1851
1851
1855
1857
1850
1849
1851
1856
1851
1849
1845
1845
1850
1852
1851
1853
1845
1846
1852
1845
1845
1842
1846
1843
1846
1845
1839
1842
1849
1846
1847
1843
1850
1849
1847
1846
1845
1847
1840
1840
1840
1834
1839
1839
1837
1834
1831
1827
1831
1834
1835
1831
1833
1836
1831
1831
1830
1835
1839
1835
1840
1839
1835
1837
1834
1840
1838
1839
1840
1840
1842
1840
1845
1853
1858
1859
1865
1865
1866
1874
1877
1879
1888
1891
1901
1899
1894
1904
1911
1914
1915
1915
1922
1929
1927
1935
1925
1931
1930
1931
1925
1922
1929
1926
1927
1925
1926
1931
1930
1927
1921
1921
1921
1922
1919
1914
1908
1915
1918
1917
1910
1908
1907
1911
1913
1907
1902
1905
1904
1903
1903
1898
1899
1901
1903
1899
1896
1902
1895
1893
1889
1887
1887
1883
1880
1878
1861
1873
1876
1872
1871
1871
1874
1878
1878
1882
1873
1878
1879
1879
1877
1878
1887
1886
1882
1881
1879
1881
1881
1879
1882
1882
1887
1891
1885
1887
1886
1878
1882
1879
1877
1872
1872
1872
1867
1862
1862
1865
1863
1863
1867
1863
1870
1872
1872
1866
1861
1867
1863
1861
1857
1857
1857
1853
1847
1844
1843
1851
1857
1855
1854
1850
1859
1857
1853
1856
1854
1858
1857
1858
1856
1849
1846
1852
1845
1845
1841
1841
1840
1846
1842
1842
1847
1846
1843
1840
1836
1840
1835
1839
1840
1836
1838
1842
1842
1841
1848
1845
1845
1847
1844
1845
1846
1852
1847
1842
1840
1840
1842
1839
1835
1827
1833
1830
1826
1825
1820
1827
1830
1829
1830
1837
1841
1840
1843
1853
1853
1867
1872
1877
1886
1886
1901
1904
1904
1907
1917
1919
1919
1927
1931
1933
1939
1941
1941
1937
1941
1937
1939
1937
1936
1934
1934
1935
1932
1931
1927
1931
1927
1924
1917
1917
1919
1914
1913
1913
1910
1918
1917
1918
1915
1911
1910
1917
1915
1910
1909
1916
1917
1909
1904
1904
1904
1901
1902
1899
1894
1888
1890
1886
1875
1872
1875
1876
1873
1872
1871
1871
1872
1872
1872
1872
1875
1877
1876
1877
1882
1879
1882
1883
1887
1883
1886
1889
1882
1883
1877
1883
1877
1879
1882
1877
1874
1874
1873
1872
1863
1871
1875
1863
1858
1859
1859
1859
1859
1859
1858
1861
1861
1862
1865
1862
1867
1866
1858
1860
1858
1857
1857
1849
1846
1842
1847
1842
1841
1839
1840
1841
1843
1845
1840
1840
1840
1840
1833
1830
1834
1834
1831
1830
1830
1824
1828
1830
1830
1829
1830
1835
1828
1829
1827
1820
1824
1824
1826
1818
1819
1823
1828
1823
1828
1822
1829
1829
1830
1826
1827
1829
1831
1833
1826
1825
1829
1829
1828
1827
1823
1826
1826
1825
1823
1815
1821
1822
1814
1813
1814
1815
1814
1814
1808
1808
1810
1813
1809
1811
1818
1821
1826
1829
1838
1840
1845
1853
1857
1865
1869
1877
1885
1895
1899
1902
1905
1907
1905
1908
1912
1922
1919
1921
1922
1923
1919
1918
1916
1914
1910
1918
1917
1917
1911
1911
1914
1915
1907
1907
1904
1904
1903
1903
1902
1901
1898
1899
1901
1902
1901
1901
1895
1899
1893
1891
1895
1899
1892
1883
1885
1879
1872
1871
1871
1862
1865
1863
1858
1855
1854
1857
1860
1856
1854
1850
1854
1857
1853
1847
1851
1857
1861
1861
1864
1866
1866
1869
1872
1872
1872
1871
1872
1872
1870
1866
1869
1855
1862
1861
1865
1862
1863
1862
1859
1856
1856
1856
1857
1855
1855
1847
1851
1850
1847
1849
1855
1846
1840
1840
1841
1847
1850
1851
1854
1855
1860
1859
1859
1863
1859
1868
1869
1863
1868
1860
1866
1858
1854
1849
1845
1843
1844
1840
1840
1842
1847
1843
1841
1842
1840
1840
1840
1840
1839
1840
1835
1830
1830
1826
1823
1826
1825
1818
1818
1814
1814
1815
1814
1814
1815
1821
1821
1817
1815
1814
1815
1820
1815
1817
1818
1815
1818
1814
1817
1815
1824
1826
1823
1819
1818
1819
1819
1812
1813
1815
1822
1821
1823
1826
1827
1829
1835
1841
1843
1842
1851
1849
1856
1863
1865
1870
1875
1886
1893
1899
1904
1908
1910
1911
1917
1925
1931
1919
1919
1919
1923
1915
1917
1917
1914
1915
1907
1904
1900
1895
1899
1898
1891
1891
1889
1894
1893
1888
1887
1886
1889
1885
1882
1876
1874
1877
1872
1870
1872
1870
1871
1866
1861
1855
1855
1858
1856
1842
1849
1847
1846
1849
1854
1850
1847
1853
1848
1849
1842
1844
1845
1847
1847
1845
1844
1857
1863
1861
1858
1861
1867
1870
1866
1867
1862
1867
1871
1867
1867
1867
1868
1865
1863
1860
1858
1856
1847
1847
1845
1840
1841
1841
1840
1839
1836
1840
1836
1831
1833
1826
1831
1830
1830
1833
1834
1837
1835
1835
1833
1830
1829
1831
1838
1833
1826
1830
1834
1831
1834
1836
1838
1839
1837
1842
1835
1837
1835
1834
1823
1836
1841
1830
1833
1837
1829
1833
1835
1840
1834
1837
1839
1836
1827
1830
1823
1823
1825
1822
1818
1818
1819
1825
1819
1818
1818
1819
1819
1820
1823
1818
1825
1823
1824
1822
1819
1821
1824
1821
1815
1819
1825
1828
1829
1829
1835
1841
1845
1845
1850
1855
1857
1859
1862
1867
1869
1874
1881
1885
1885
1891
1903
1903
1902
1902
1897
1902
1904
1904
1902
1891
1906
1898
1899
1898
1902
1903
1897
1891
1883
1878
1879
1883
1878
1875
1872
1874
1874
1873
1875
1874
1879
1878
1879
1878
1875
1882
1881
1876
1878
1874
1882
1877
1879
1875
1872
1872
1872
1873
1873
1873
1877
1873
1875
1873
1872
1878
1872
1869
1866
1863
1867
1859
1855
1858
1854
1866
1862
1865
1867
1863
1849
1869
1863
1861
1861
1862
1858
1865
1857
1859
1867
1869
1867
1863
1866
1872
1869
1869
1862
1860
1857
1857
1854
1855
1851
1859
1857
1854
1853
1852
1855
1853
1853
1847
1844
1851
1851
1846
1846
1844
1849
1844
1840
1840
1838
1840
1838
1837
1831
1837
1840
1841
1838
1831
1831
1836
1835
1830
1822
1824
1836
1834
1831
1826
1831
1831
1834
1840
1828
1830
1831
1834
1830
1829
1835
1837
1836
1830
1829
1830
1831
1827
1831
1825
1824
1834
1834
1829
1829
1827
1828
1825
1827
1826
1825
1831
1826
1827
1826
1831
1829
1825
1825
1821
1827
1829
1831
1830
1831
1834
1846
1845
1850
1851
1856
1859
1869
1867
1867
1865
1871
1874
1879
1877
1883
1891
1897
1900
1899
1899
1904
1906
1904
1904
1904
1909
1906
1904
1902
1901
1903
1900
1901
1898
1899
1899
1895
1894
1895
1890
1896
1897
1894
1889
1888
1894
1891
1887
1887
1885
1885
1876
1877
1877
1872
1876
1880
1883
1878
1879
1884
1877
1875
1882
1875
1881
1877
1877
1872
1875
1882
1878
1883
1875
1872
1876
1872
1872
1866
1861
1859
1858
1855
1850
1851
1861
1854
1856
1855
1852
1857
1861
1856
1852
1850
1859
1852
1847
1845
1843
1846
1843
1850
1841
1840
1846
1851
1854
1847
1851
1857
1856
1853
1849
1850
1855
1856
1856
1852
1851
1855
1850
1846
1843
1841
1843
1835
1837
1831
1830
1836
1836
1836
1834
1835
1842
1842
1845
1845
1849
1854
1851
1846
1840
1846
1844
1845
1847
1843
1840
1844
1847
1849
1846
1842
1851
1846
1842
1843
1841
1850
1840
1839
1836
1838
1838
1834
1835
1830
1830
1831
1830
1829
1824
1829
1824
1831
1830
1831
1827
1831
1824
1823
1821
1820
1822
1821
1819
1821
1819
1825
1823
1825
1819
1830
1837
1839
1843
1849
1853
1859
1863
1871
1872
1881
1883
1875
1882
1889
1891
1893
1899
1899
1903
1901
1904
1904
1904
1907
1903
1910
1909
1909
1904
1904
1906
1905
1904
1901
1902
1904
1905
1904
1901
1891
1897
1893
1887
1883
1883
1881
1879
1878
1882
1879
1876
1879
1878
1872
1872
1874
1873
1873
1872
1872
1875
1877
1878
1873
1872
1874
1873
1872
1872
1874
1875
1877
1878
1873
1872
1873
1872
1871
1865
1865
1866
1862
1861
1860
1859
1863
1860
1861
1859
1858
1872
1859
1859
1858
1861
1867
1865
1862
1857
1859
1865
1866
1863
1858
1860
1859
1860
1859
1860
1859
1862
1861
1861
1859
1859
1861
1859
1861
1854
1853
1856
1855
1853
1854
1851
1851
1850
1849
1849
1845
1841
1841
1840
1840
1839
1834
1838
1831
1830
1830
1833
1837
1831
1834
1837
1840
1839
1835
1831
1837
1840
1839
1835
1846
1835
1837
1834
1840
1833
1834
1840
1834
1837
1837
1838
1840
1840
1843
1837
1834
1837
1835
1835
1830
1835
1837
1838
1834
1835
1829
1834
1829
1825
1825
1823
1835
1831
1830
1829
1830
1836
1838
1833
1835
1838
1840
1840
1840
1840
1847
1853
1857
1858
1862
1863
1872
1870
1875
1873
1882
1892
1897
1899
1901
1904
1907
1906
1907
1904
1906
1911
1907
1902
1895
1903
1903
1899
1899
1899
1899
1895
1896
1894
1890
1892
1895
1895
1887
1885
1881
1888
1886
1885
1879
1883
1882
1878
1881
1872
1882
1885
1885
1883
1877
1873
1872
1874
1872
1865
1871
1872
1872
1872
1863
1872
1867
1867
1859
1857
1859
1865
1857
1858
1855
1858
1858
1857
1859
1856
1860
1866
1867
1867
1871
1873
1874
1872
1871
1872
1872
1872
1879
1873
1870
1870
1865
1859
1854
1854
1853
1857
1855
1851
1854
1855
1854
1853
1855
1851
1851
1851
1852
1847
1845
1851
1856
1859
1855
1854
1857
1857
1853
1851
1851
1847
1849
1847
1845
1847
1851
1857
1851
1849
1845
1842
1843
1841
1845
1842
1843
1842
1845
1841
1840
1841
1839
1838
1846
1834
1833
1833
1840
1834
1833
1840
1841
1836
1831
1836
1830
1833
1835
1840
1837
1842
1844
1845
1841
1840
1840
1846
1844
1843
1847
1849
1853
1855
1851
1849
1847
1853
1849
1850
1850
1843
1850
1850
1852
1855
1859
1863
1861
1859
1858
1865
1867
1869
1871
1871
1872
1876
1885
1883
1879
1887
1891
1888
1888
1888
1891
1893
1895
1889
1887
1888
1890
1893
1887
1895
1887
1890
1886
1884
1877
1876
1885
1884
1883
1881
1878
1878
1877
1879
1875
1878
1882
1883
1884
1876
1881
1882
1866
1883
1881
1885
1879
1878
1875
1872
1870
1872
1870
1867
1871
1870
1872
1871
1874
1872
1873
1875
1877
1873
1873
1875
1883
1873
1871
1871
1867
1872
1867
1863
1859
1859
1867
1862
1857
1859
1853
1862
1858
1855
1852
1854
1866
1856
1853
1852
1853
1855
1856
1855
1851
1850
1854
1852
1847
1847
1846
1849
1843
1840
1840
1841
1840
1842
1843
1845
1846
1847
1843
1845
1840
1847
1849
1843
1846
1840
1836
1843
1843
1843
1840
1840
1842
1840
1838
1835
1840
1840
1840
1831
1831
1833
1839
1835
1835
1829
1833
1835
1839
1838
1831
1835
1839
1837
1836
1835
1833
1837
1823
1828
1821
1820
1821
1818
1821
1819
1817
1825
1826
1824
1824
1828
1834
1833
1834
1827
1829
1832
1833
1835
1837
1846
1853
1854
1854
1855
1860
1869
1872
1871
1868
1873
1881
1874
1881
1883
1889
1895
1889
1879
1889
1891
1898
1897
1898
1899
1899
1901
1900
1899
1891
1899
1903
1890
1893
1891
1891
1894
1891
1895
1882
1887
1886
1886
1886
1878
1882
1879
1885
1876
1874
1879
1882
1878
1879
1877
1882
1882
1878
1881
1879
1885
1886
1883
1879
1881
1873
1878
1872
1874
1872
1872
1872
1869
1866
1859
1857
1863
1862
1863
1857
1863
1866
1867
1867
1866
1862
1869
1870
1870
1866
1866
1869
1869
1869
1867
1867
1867
1871
1871
1863
1863
1861
1857
1856
1855
1857
1854
1856
1851
1850
1853
1850
1853
1853
1845
1851
1855
1853
1847
1843
1840
1842
1841
1843
1840
1840
1842
1841
1841
1840
1847
1847
1846
1847
1847
1843
1846
1847
1845
1841
1844
1843
1841
1840
1838
1838
1837
1840
1840
1840
1841
1842
1842
1842
1839
1837
1835
1830
1829
1826
1823
1834
1838
1828
1827
1831
1825
1823
1822
1822
1821
1822
1826
1825
1822
1825
1830
1833
1833
1829
1832
1834
1831
1838
1833
1834
1834
1831
1840
1839
1839
1844
1840
1840
1840
1840
1844
1849
1851
1839
1854
1862
1859
1862
1861
1867
1874
1875
1875
1877
1885
1889
1888
1887
1889
1891
1888
1892
1898
1895
1897
1901
1898
1899
1891
1893
1898
1896
1892
1888
1889
1891
1894
1889
1885
1884
1893
1890
1889
1885
1887
1887
1887
1889
1887
1887
1897
1899
1894
1893
1895
1888
1889
1888
1883
1872
1883
1887
1885
1877
1881
1879
1872
1871
1869
1866
1866
1864
1866
1859
1861
1861
1857
1858
1853
1861
1861
1858
1862
1863
1868
1869
1872
1867
1861
1863
1867
1865
1863
1860
1863
1866
1867
1867
1863
1871
1872
1871
1872
1872
1872
1872
1873
1872
1870
1870
1866
1865
1858
1855
1860
1858
1856
1851
1847
1850
1851
1851
1846
1846
1847
1855
1855
1847
1846
1846
1845
1847
1846
1839
1843
1847
1840
1839
1835
1834
1835
1830
1835
1827
1830
1835
1833
1830
1823
1831
1838
1830
1829
1825
1828
1835
1834
1840
1833
1834
1839
1840
1840
1839
1840
1842
1842
1845
1842
1844
1854
1847
1847
1844
1854
1850
1845
1851
1843
1845
1849
1847
1845
1840
1840
1840
1835
1835
1831
1831
1835
1831
1829
1824
1834
1840
1842
1843
1842
1853
1861
1858
1867
1866
1867
1873
1872
1876
1872
1881
1883
1882
1883
1882
1883
1886
1894
1895
1893
1894
1899
1899
1894
1895
1889
1889
1888
1878
1881
1884
1887
1886
1883
1878
1872
1885
1882
1881
1884
1883
1883
1885
1882
1874
1877
1882
1878
1872
1872
1875
1876
1875
1875
1871
1877
1882
1879
1872
1870
1874
1872
1867
1873
1868
1869
1869
1860
1867
1855
1862
1859
1858
1863
1856
1859
1862
1865
1866
1865
1869
1871
1872
1866
1867
1869
1872
1865
1865
1866
1870
1863
1861
1866
1861
1868
1869
1867
1870
1861
1863
1862
1859
1858
1853
1858
1858
1857
1855
1847
1850
1844
1853
1854
1850
1853
1853
1853
1851
1845
1846
1847
1851
1850
1843
1843
1845
1846
1842
1840
1840
1842
1840
1840
1835
1834
1833
1833
1831
1831
1838
1839
1834
1839
1834
1834
1835
1830
1835
1827
1830
1835
1834
1831
1827
1831
1831
1829
1835
1822
1833
1833
1830
1829
1839
1831
1838
1839
1835
1835
1839
1837
1834
1833
1834
1834
1836
1835
1828
1829
1839
1835
1840
1840
1839
1845
1850
1847
1850
1851
1857
1865
1867
1872
1872
1878
1878
1879
1887
1879
1884
1889
1886
1887
1891
1893
1889
1889
1888
1887
1891
1893
1887
1893
1886
1890
1887
1889
1891
1887
1888
1885
1885
1878
1879
1888
1882
1879
1881
1882
1875
1883
1885
1882
1882
1883
1883
1884
1885
1885
1886
1880
1876
1874
1868
1871
1872
1871
1867
1860
1858
1862
1854
1856
1847
1851
1850
1853
1841
1840
1847
1854
1854
1846
1847
1846
1849
1846
1850
1845
1846
1853
1854
1846
1850
1855
1851
1849
1856
1855
1851
1851
1851
1857
1853
1855
1852
1851
1845
1843
1847
1845
1855
1849
1843
1852
1856
1855
1851
1849
1853
1853
1852
1851
1849
1851
1854
1849
1851
1847
1852
1850
1846
1845
1846
1854
1849
1849
1845
1842
1847
1842
1845
1843
1842
1845
1849
1847
1847
1842
1843
1845
1841
1841
1843
1851
1851
1852
1850
1845
1848
1847
1842
1846
1842
1846
1844
1843
1843
1841
1840
1841
1850
1841
1840
1840
1841
1838
1834
1839
1840
1838
1839
1840
1836
1836
1836
1829
1827
1824
1831
1829
1831
1827
1830
1833
1839
1841
1841
1840
1851
1855
1855
1861
1863
1871
1872
1869
1872
1872
1873
1876
1874
1879
1885
1886
1885
1885
1890
1886
1893
1889
1888
1886
1882
1894
1889
1885
1887
1888
1883
1886
1886
1877
1874
1882
1881
1877
1881
1888
1881
1876
1875
1877
1873
1870
1870
1870
1861
1862
1861
1857
1855
1854
1849
1853
1854
1860
1851
1846
1851
1850
1850
1845
1852
1853
1855
1856
1855
1855
1856
1858
1855
1856
1858
1861
1863
1859
1860
1861
1859
1861
1861
1862
1860
1862
1861
1866
1861
1861
1860
1857
1857
1855
1854
1857
1857
1856
1852
1854
1852
1854
1854
1857
1853
1855
1862
1854
1858
1853
1859
1858
1857
1855
1853
1849
1853
1857
1846
1843
1850
1846
1850
1845
1847
1850
1843
1843
1840
1843
1840
1840
1837
1831
1833
1834
1840
1840
1836
1831
1836
1837
1840
1834
1835
1839
1839
1837
1839
1838
1836
1835
1835
1829
1829
1831
1829
1830
1829
1830
1829
1831
1831
1824
1823
1830
1838
1831
1827
1823
1831
1824
1826
1825
1825
1827
1833
1830
1830
1831
1838
1839
1834
1834
1838
1840
1843
1850
1853
1854
1869
1867
1870
1869
1872
1875
1878
1878
1883
1881
1886
1882
1882
1877
1874
1887
1879
1877
1878
1875
1877
1877
1882
1877
1873
1878
1877
1879
1876
1872
1877
1874
1875
1873
1874
1875
1875
1871
1871
1869
1867
1869
1867
1867
1862
1865
1865
1861
1859
1859
1857
1850
1846
1845
1841
1841
1846
1841
1840
1840
1841
1841
1840
1839
1840
1840
1840
1840
1840
1840
1841
1842
1839
1840
1840
1841
1843
1845
1851
1843
1851
1852
1854
1850
1846
1850
1851
1851
1853
1846
1853
1853
1856
1855
1854
1858
1860
1856
1857
1855
1861
1859
1855
1851
1849
1855
1855
1851
1842
1842
1854
1850
1844
1840
1837
1838
1834
1838
1837
1834
1837
1842
1840
1841
1841
1840
1839
1840
1840
1839
1839
1840
1838
1835
1835
1840
1837
1835
1829
1830
1836
1833
1834
1828
1830
1829
1831
1829
1821
1825
1829
1829
1830
1829
1833
1835
1836
1835
1826
1831
1835
1835
1833
1829
1827
1825
1829
1829
1834
1826
1841
1834
1835
1834
1833
1840
1840
1840
1840
1838
1841
1840
1839
1841
1839
1840
1840
1842
1843
1842
1852
1854
1860
1859
1861
1871
1871
1871
1871
1873
1876
1878
1886
1887
1878
1883
1885
1877
1878
1878
1879
1879
1879
1881
1872
1878
1875
1874
1870
1872
1876
1873
1872
1872
1872
1875
1875
1872
1870
1863
1871
1871
1869
1862
1868
1869
1867
1871
1863
1858
1866
1869
1868
1859
1855
1867
1865
1858
1859
1855
1856
1854
1847
1845
1845
1847
1843
1840
1840
1840
1846
1845
1851
1852
1859
1865
1862
1863
1867
1866
1869
1867
1869
1865
1862
1862
1863
1858
1855
1856
1856
1856
1855
1851
1845
1847
1845
1845
1846
1840
1847
1845
1843
1840
1841
1842
1842
1848
1843
1841
1843
1841
1840
1840
1841
1846
1841
1840
1840
1842
1840
1843
1842
1840
1840
1846
1840
1840
1839
1840
1840
1835
1839
1838
1837
1840
1838
1834
1838
1834
1837
1840
1840
1842
1842
1847
1847
1844
1849
1851
1855
1855
1851
1849
1847
1853
1852
1851
1847
1849
1854
1853
1852
1854
1850
1849
1842
1851
1847
1848
1847
1846
1849
1845
1851
1851
1845
1849
1846
1846
1843
1841
1843
1840
1842
1845
1845
1839
1840
1837
1840
1838
1838
1838
1833
1834
1836
1840
1841
1840
1849
1851
1855
1857
1859
1861
1869
1863
1865
1870
1872
1871
1872
1872
1871
1873
1877
1878
1879
1873
1877
1872
1872
1872
1871
1872
1869
1869
1868
1861
1870
1869
1866
1859
1866
1865
1867
1862
1859
1855
1860
1870
1865
1861
1857
1861
1859
1856
1856
1855
1859
1862
1862
1859
1857
1860
1856
1859
1856
1855
1853
1853
1855
1854
1851
1850
1849
1855
1847
1847
1854
1855
1851
1855
1854
1854
1855
1857
1859
1851
1858
1857
1861
1859
1861
1863
1859
1861
1858
1854
1859
1867
1865
1862
1859
1855
1857
1853
1847
1842
1851
1853
1846
1843
1844
1842
1842
1845
1843
1840
1841
1840
1840
1841
1841
1840
1831
1870
1904
1886
1835
1856
1901
1886
1873
1883
1879
1877
1872
1867
1872
1870
1863
1864
1855
1857
1853
1845
1840
1838
1839
1835
1827
1825
1819
1821
1819
1815
1814
1815
1819
1821
1818
1814
1817
1817
1821
1822
1815
1823
1830
1831
1833
1826
1837
1835
1835
1837
1842
1831
1835
1836
1835
1834
1837
1840
1838
1837
1836
1840
1841
1840
1840
1839
1840
1841
1840
1840
1843
1841
1844
1842
1847
1846
1849
1854
1853
1848
1847
1847
1855
1855
1852
1852
1850
1855
1855
1859
1856
1866
1871
1871
1869
1867
1872
1862
1872
1872
1872
1872
1872
1872
1872
1863
1855
1872
1872
1867
1870
1872
1872
1872
1863
1869
1871
1876
1871
1869
1871
1871
1875
1872
1870
1871
1861
1866
1863
1860
1863
1858
1859
1858
1854
1856
1856
1857
1857
1854
1849
1853
1857
1858
1851
1850
1842
1855
1855
1855
1854
1855
1869
1869
1872
1872
1872
1872
1872
1872
1872
1871
1871
1872
1872
1858
1867
1873
1871
1870
1872
1867
1872
1870
1869
1858
1855
1863
1857
1853
1854
1853
1856
1850
1850
1845
1847
1846
1844
1851
1849
1841
1843
1845
1845
1847
1844
1849
1847
1852
1855
1855
1861
1859
1860
1855
1855
1858
1858
1856
1854
1849
1854
1854
1846
1840
1840
1842
1840
1842
1841
1840
1847
1852
1850
1843
1846
1847
1843
1843
1843
1842
1849
1845
1840
1840
1840
1842
1844
1846
1840
1840
1844
1843
1844
1839
1837
1840
1840
1842
1836
1838
1839
1837
1840
1842
1838
1840
1828
1831
1834
1833
1837
1835
1838
1835
1833
1840
1833
1831
1832
1837
1840
1842
1846
1844
1844
1850
1856
1857
1855
1862
1869
1871
1865
1871
1872
1873
1873
1873
1872
1872
1877
1879
1879
1883
1882
1881
1879
1878
1872
1875
1879
1874
1878
1872
1872
1879
1874
1875
1874
1878
1882
1879
1878
1878
1873
1874
1872
1871
1864
1866
1866
1869
1861
1858
1863
1873
1861
1861
1861
1862
1861
1856
1857
1852
1853
1851
1845
1842
1840
1840
1846
1842
1840
1840
1840
1843
1847
1845
1842
1845
1847
1847
1849
1842
1853
1850
1843
1846
1847
1851
1857
1856
1855
1851
1851
1855
1855
1853
1851
1853
1853
1849
1851
1845
1845
1851
1855
1854
1852
1849
1851
1850
1847
1847
1846
1853
1852
1849
1840
1840
1841
1842
1845
1841
1846
1855
1851
1853
1846
1856
1853
1855
1855
1849
1856
1856
1855
1853
1847
1846
1850
1847
1845
1842
1847
1847
1846
1843
1840
1843
1847
1850
1844
1843
1845
1849
1843
1847
1843
1840
1842
1842
1840
1840
1840
1840
1852
1843
1842
1849
1854
1851
1841
1840
1841
1842
1841
1844
1840
1840
1841
1841
1839
1842
1842
1842
1841
1842
1842
1843
1852
1853
1846
1843
1844
1850
1847
1843
1843
1843
1849
1851
1851
1852
1855
1866
1866
1872
1869
1870
1874
1872
1877
1872
1875
1882
1881
1872
1873
1875
1873
1868
1871
1870
1866
1872
1873
1868
1869
1872
1872
1869
1868
1868
1865
1866
1865
1869
1862
1862
1862
1867
1863
1858
1859
1859
1855
1865
1853
1849
1857
1856
1855
1846
1850
1854
1857
1850
1850
1847
1850
1851
1851
1849
1849
1855
1854
1853
1855
1849
1851
1853
1856
1851
1851
1856
1855
1858
1861
1865
1867
1867
1872
1867
1871
1872
1874
1867
1866
1865
1869
1858
1866
1870
1863
1869
1863
1862
1855
1854
1853
1854
1850
1847
1845
1850
1845
1843
1841
1841
1846
1843
1840
1840
1840
1839
1839
1839
1839
1840
1841
1843
1842
1843
1840
1847
1850
1850
1845
1850
1846
1848
1849
1853
1852
1854
1847
1848
1853
1855
1857
1855
1857
1854
1851
1854
1851
1849
1849
1845
1842
1845
1841
1847
1840
1840
1840
1839
1833
1835
1837
1839
1839
1837
1840
1840
1840
1840
1841
1840
1843
1846
1847
1847
1851
1851
1849
1843
1845
1851
1854
1850
1852
1843
1850
1853
1853
1854
1849
1855
1857
1858
1866
1865
1863
1871
1871
1872
1871
1875
1875
1878
1872
1872
1871
1872
1877
1874
1872
1873
1878
1872
1872
1872
1873
1874
1873
1872
1869
1867
1875
1872
1867
1865
1868
1872
1869
1870
1870
1867
1870
1866
1863
1862
1862
1862
1861
1861
1859
1855
1855
1859
1857
1856
1861
1859
1857
1856
1854
1859
1860
1862
1859
1861
1859
1861
1863
1862
1859
1857
1871
1860
1859
1855
1859
1862
1863
1871
1867
1868
1871
1869
1864
1859
1859
1853
1853
1858
1855
1859
1862
1859
1855
1853
1857
1855
1855
1857
1854
1855
1861
1854
1851
1855
1854
1855
1851
1854
1842
1850
1850
1845
1843
1841
1841
1850
1846
1842
1840
1845
1846
1844
1846
1845
1846
1847
1843
1842
1840
1843
1854
1853
1851
1851
1857
1855
1861
1857
1850
1853
1853
1851
1851
1847
1842
1842
1847
1845
1847
1846
1850
1849
1847
1845
1845
1843
1840
1847
1840
1840
1839
1841
1840
1835
1839
1839
1839
1840
1839
1834
1840
1841
1839
1836
1835
1838
1837
1840
1839
1841
1843
1842
1844
1847
1853
1857
1859
1863
1859
1862
1872
1872
1871
1872
1875
1879
1883
1882
1874
1879
1886
1883
1877
1879
1883
1883
1883
1882
1875
1876
1879
1878
1875
1874
1873
1872
1870
1871
1862
1862
1871
1871
1870
1867
1872
1867
1867
1863
1866
1867
1873
1870
1871
1863
1861
1864
1857
1857
1859
1859
1853
1865
1857
1855
1854
1855
1854
1849
1850
1850
1853
1849
1850
1843
1846
1844
1843
1842
1843
1849
1851
1847
1856
1857
1858
1861
1861
1866
1855
1860
1869
1863
1861
1865
1863
1868
1867
1869
1863
1867
1872
1870
1869
1868
1872
1872
1870
1865
1863
1859
1861
1861
1859
1851
1854
1859
1861
1855
1855
1858
1859
1861
1862
1861
1861
1861
1861
1860
1856
1859
1857
1857
1847
1847
1846
1847
1846
1842
1834
1841
1841
1840
1838
1834
1839
1839
1839
1840
1839
1839
1841
1840
1842
1846
1843
1847
1845
1846
1847
1855
1851
1854
1847
1851
1857
1857
1857
1858
1857
1855
1857
1855
1855
1853
1855
1857
1852
1852
1851
1843
1846
1847
1840
1839
1838
1837
1840
1837
1838
1840
1846
1846
1849
1847
1843
1847
1845
1846
1844
1851
1858
1860
1862
1866
1868
1867
1866
1869
1868
1869
1872
1870
1866
1866
1869
1872
1872
1873
1872
1876
1877
1873
1872
1869
1873
1879
1873
1867
1871
1869
1868
1872
1866
1868
1872
1879
1872
1870
1874
1872
1872
1871
1872
1871
1869
1870
1871
1869
1857
1855
1856
1853
1854
1852
1856
1855
1853
1847
1847
1853
1858
1851
1857
1853
1855
1851
1855
1855
1854
1857
1857
1854
1853
1853
1858
1860
1857
1858
1854
1861
1865
1863
1862
1862
1869
1866
1866
1867
1861
1859
1868
1868
1865
1865
1866
1870
1862
1860
1862
1858
1861
1859
1859
1855
1851
1866
1851
1851
1847
1845
1845
1844
1844
1843
1850
1849
1853
1847
1841
1847
1851
1845
1847
1849
1849
1852
1853
1854
1851
1856
1861
1856
1855
1856
1858
1855
1855
1857
1847
1851
1855
1850
1847
1845
1850
1851
1840
1840
1837
1840
1840
1840
1841
1837
1840
1840
1840
1840
1842
1840
1840
1850
1841
1840
1840
1846
1840
1840
1840
1849
1845
1843
1845
1840
1845
1849
1845
1845
1841
1850
1845
1847
1844
1845
1846
1845
1840
1841
1842
1845
1846
1849
1850
1853
1855
1856
1855
1858
1859
1863
1866
1863
1869
1867
1871
1871
1872
1869
1870
1882
1872
1872
1873
1872
1886
1882
1887
1882
1883
1882
1885
1895
1887
1875
1878
1887
1882
1877
1878
1879
1877
1871
1879
1870
1869
1870
1870
1877
1868
1869
1872
1872
1871
1872
1872
1871
1867
1862
1865
1869
1872
1870
1869
1863
1863
1862
1860
1859
1855
1857
1856
1855
1853
1849
1856
1855
1854
1856
1850
1855
1855
1855
1855
1851
1859
1858
1859
1858
1855
1869
1858
1860
1858
1855
1859
1861
1862
1858
1855
1854
1854
1853
1858
1859
1859
1860
1861
1861
1858
1867
1859
1861
1859
1858
1859
1859
1855
1854
1851
1857
1859
1860
1858
1855
1855
1854
1859
1855
1853
1855
1850
1856
1851
1850
1854
1859
1857
1857
1859
1861
1862
1863
1854
1853
1858
1861
1859
1857
1858
1857
1857
1857
1852
1847
1846
1853
1846
1847
1843
1845
1850
1845
1847
1845
1848
1843
1843
1842
1840
1853
1851
1851
1847
1846
1850
1845
1847
1844
1842
1846
1844
1844
1842
1840
1846
1843
1841
1841
1839
1843
1840
1840
1839
1840
1840
1844
1842
1840
1842
1841
1840
1841
1840
1840
1845
1847
1846
1852
1855
1860
1865
1866
1867
1865
1871
1873
1875
1875
1883
1885
1882
1884
1883
1886
1890
1889
1887
1887
1883
1883
1878
1872
1872
1873
1875
1875
1875
1871
1863
1869
1869
1867
1864
1863
1871
1867
1862
1861
1860
1870
1866
1869
1859
1858
1865
1865
1863
1865
1860
1865
1863
1859
1859
1858
1863
1855
1859
1855
1859
1863
1862
1857
1859
1859
1861
1859
1858
1853
1854
1857
1852
1851
1853
1851
1851
1855
1849
1851
1850
1854
1854
1850
1853
1850
1853
1851
1855
1853
1851
1850
1846
1854
1850
1859
1852
1855
1855
1856
1855
1859
1856
1858
1859
1856
1865
1859
1861
1857
1856
1859
1857
1861
1859
1856
1863
1857
1857
1856
1857
1855
1854
1847
1851
1843
1853
1853
1856
1855
1859
1859
1856
1857
1861
1859
1857
1857
1855
1853
1853
1854
1857
1854
1853
1854
1855
1851
1852
1845
1844
1850
1849
1851
1849
1855
1856
1855
1851
1854
1853
1855
1855
1856
1853
1856
1856
1855
1854
1847
1847
1853
1842
1841
1839
1840
1840
1840
1840
1840
1840
1840
1839
1840
1839
1840
1847
1851
1847
1855
1853
1859
1858
1859
1857
1861
1863
1872
1873
1873
1872
1897
1886
1881
1881
1883
1886
1887
1890
1887
1889
1894
1894
1890
1894
1894
1891
1889
1886
1887
1885
1887
1892
1875
1873
1872
1874
1872
1870
1872
1866
1866
1867
1864
1861
1861
1858
1861
1859
1858
1855
1861
1856
1859
1853
1852
1854
1855
1855
1855
1855
1858
1849
1853
1853
1853
1853
1853
1855
1856
1855
1863
1862
1861
1862
1865
1871
1872
1873
1872
1867
1872
1871
1872
1866
1867
1867
1867
1870
1861
1862
1866
1865
1861
1862
1854
1858
1856
1855
1863
1855
1855
1847
1855
1851
1855
1855
1853
1851
1854
1858
1856
1856
1857
1851
1854
1859
1860
1857
1857
1858
1867
1862
1859
1863
1862
1863
1863
1861
1858
1855
1860
1855
1855
1852
1847
1847
1846
1850
1845
1845
1853
1846
1842
1843
1846
1850
1844
1849
1853
1854
1861
1860
1856
1854
1859
1862
1865
1861
1870
1857
1859
1860
1859
1853
1849
1849
1847
1850
1853
1851
1854
1850
1853
1848
1847
1854
1849
1847
1845
1847
1854
1851
1851
1854
1851
1853
1843
1850
1839
1847
1853
1851
1843
1840
1842
1845
1843
1846
1842
1840
1843
1845
1840
1843
1849
1856
1854
1857
1861
1863
1872
1874
1874
1873
1877
1885
1885
1884
1888
1889
1889
1882
1886
1886
1891
1900
1894
1893
1890
1890
1888
1883
1883
1879
1882
1879
1878
1875
1874
1872
1875
1875
1881
1874
1877
1874
1872
1877
1875
1877
1881
1882
1883
1879
1878
1883
1877
1876
1873
1873
1876
1876
1872
1872
1873
1881
1872
1872
1868
1866
1869
1865
1862
1858
1862
1865
1860
1858
1860
1861
1865
1863
1868
1862
1858
1867
1859
1859
1857
1863
1863
1863
1860
1863
1863
1862
1861
1860
1859
1861
1863
1857
1861
1862
1859
1863
1857
1865
1858
1858
1869
1867
1865
1863
1868
1872
1869
1869
1868
1867
1865
1863
1862
1858
1863
1861
1857
1856
1854
1853
1853
1855
1851
1847
1850
1853
1850
1853
1852
1851
1853
1855
1856
1851
1854
1855
1855
1853
1855
1857
1856
1855
1858
1851
1853
1855
1853
1854
1852
1853
1855
1853
1851
1847
1850
1853
1856
1854
1846
1847
1855
1851
1849
1844
1849
1851
1851
1861
1855
1857
1863
1862
1859
1859
1856
1863
1859
1856
1856
1853
1862
1859
1858
1855
1858
1858
1861
1858
1856
1860
1857
1858
1857
1856
1855
1862
1855
1850
1855
1857
1859
1859
1869
1862
1863
1872
1872
1878
1872
1875
1874
1877
1883
1888
1889
1888
1894
1893
1891
1895
1893
1895
1889
1886
1887
1893
1887
1885
1879
1877
1879
1878
1877
1874
1878
1879
1876
1879
1873
1872
1872
1875
1872
1872
1872
1875
1873
1877
1874
1873
1875
1875
1874
1875
1872
1878
1872
1869
1869
1869
1873
1872
1873
1872
1865
1872
1872
1869
1867
1873
1875
1872
1871
1871
1871
1874
1872
1871
1866
1866
1869
1870
1867
1867
1868
1871
1869
1868
1863
1863
1867
1869
1865
1861
1862
1866
1865
1866
1859
1859
1865
1866
1863
1861
1867
1868
1871
1865
1863
1863
1861
1867
1867
1866
1866
1858
1872
1861
1861
1862
1862
1862
1862
1855
1845
1854
1855
1855
1845
1858
1850
1855
1840
1849
1849
1847
1853
1855
1847
1854
1857
1854
1855
1849
1853
1854
1850
1855
1847
1849
1856
1856
1852
1847
1859
1857
1854
1854
1850
1853
1857
1861
1863
1853
1861
1869
1860
1858
1858
1863
1869
1861
1863
1863
1866
1869
1866
1863
1859
1863
1863
1856
1855
1853
1853
1852
1854
1855
1855
1855
1851
1853
1857
1854
1851
1851
1861
1851
1850
1845
1846
1847
1845
1847
1847
1851
1854
1855
1853
1855
1858
1857
1862
1865
1870
1870
1870
1872
1874
1875
1877
1885
1885
1889
1887
1898
1889
1888
1899
1893
1894
1898
1895
1888
1887
1889
1883
1879
1879
1877
1873
1877
1881
1876
1872
1872
1872
1873
1874
1872
1870
1867
1868
1870
1869
1869
1874
1872
1872
1871
1872
1872
1873
1875
1873
1872
1873
1875
1872
1866
1866
1865
1862
1867
1865
1863
1862
1865
1863
1864
1862
1862
1863
1866
1867
1862
1855
1859
1866
1862
1862
1857
1859
1857
1856
1855
1861
1862
1863
1863
1860
1862
1867
1866
1862
1868
1869
1869
1871
1871
1867
1866
1865
1872
1869
1870
1872
1872
1871
1868
1869
1869
1866
1871
1862
1859
1860
1863
1861
1859
1854
1858
1858
1858
1857
1855
1854
1855
1855
1855
1851
1857
1851
1853
1851
1853
1854
1852
1855
1854
1850
1854
1853
1858
1857
1863
1861
1854
1863
1863
1863
1859
1863
1857
1863
1863
1865
1870
1868
1861
1865
1863
1867
1867
1866
1859
1870
1861
1863
1862
1863
1861
1859
1871
1859
1853
1854
1855
1855
1854
1852
1853
1851
1853
1852
1846
1843
1840
1841
1839
1840
1844
1843
1842
1841
1840
1840
1841
1847
1847
1851
1854
1853
1856
1859
1858
1866
1870
1871
1872
1875
1884
1886
1890
1893
1891
1894
1901
1903
1902
1901
1903
1901
1907
1904
1899
1903
1901
1902
1891
1888
1893
1891
1898
1888
1890
1886
1890
1887
1885
1890
1879
1883
1878
1879
1874
1873
1881
1882
1872
1869
1867
1872
1872
1872
1872
1872
1870
1871
1868
1872
1870
1867
1869
1862
1863
1863
1863
1870
1863
1862
1862
1868
1871
1866
1867
1872
1872
1873
1873
1872
1870
1868
1868
1870
1866
1869
1869
1863
1863
1869
1872
1871
1875
1872
1875
1877
1872
1877
1875
1882
1881
1878
1875
1876
1875
1876
1879
1881
1872
1874
1873
1872
1871
1866
1863
1862
1861
1859
1855
1854
1857
1857
1865
1862
1862
1866
1859
1865
1860
1855
1861
1854
1854
1850
1849
1854
1845
1850
1854
1847
1850
1850
1849
1851
1851
1856
1849
1855
1855
1854
1855
1854
1859
1859
1853
1853
1854
1857
1849
1857
1853
1850
1856
1855
1851
1845
1858
1855
1854
1849
1851
1851
1853
1851
1850
1851
1857
1855
1851
1855
1861
1854
1855
1855
1857
1854
1856
1861
1857
1854
1857
1855
1861
1853
1855
1847
1850
1851
1847
1850
1845
1847
1851
1850
1850
1855
1856
1861
1858
1867
1863
1871
1872
1872
1872
1876
1879
1881
1879
1887
1887
1888
1893
1895
1899
1904
1911
1904
1904
1906
1904
1904
1907
1904
1902
1901
1897
1899
1893
1890
1891
1889
1888
1885
1883
1882
1876
1879
1878
1873
1878
1879
1882
1873
1876
1879
1883
1881
1876
1876
1881
1881
1879
1881
1872
1875
1870
1871
1869
1869
1872
1872
1871
1872
1870
1867
1872
1870
1872
1872
1872
1867
1872
1872
1872
1872
1872
1872
1874
1875
1879
1881
1875
1881
1878
1874
1872
1872
1873
1873
1871
1872
1869
1887
1871
1870
1867
1869
1866
1861
1861
1861
1862
1867
1862
1869
1867
1863
1867
1867
1863
1865
1862
1867
1870
1870
1871
1870
1871
1872
1871
1866
1869
1870
1866
1863
1861
1859
1857
1858
1861
1856
1857
1862
1861
1860
1867
1858
1862
1863
1867
1861
1858
1867
1857
1856
1857
1855
1856
1849
1852
1851
1845
1851
1845
1841
1841
1840
1845
1847
1847
1847
1841
1840
1843
1845
1841
1843
1850
1850
1849
1849
1851
1855
1850
1851
1853
1851
1858
1858
1855
1852
1854
1859
1862
1861
1857
1858
1860
1866
1867
1857
1855
1859
1857
1852
1855
1855
1852
1855
1853
1844
1847
1851
1851
1848
1839
1840
1842
1843
1854
1847
1846
1856
1858
1861
1863
1863
1871
1870
1873
1878
1875
1885
1887
1887
1886
1883
1901
1899
1899
1894
1892
1895
1890
1891
1890
1890
1891
1893
1891
1891
1891
1890
1889
1885
1883
1881
1885
1885
1881
1875
1877
1885
1881
1878
1877
1876
1881
1882
1884
1878
1877
1883
1879
1882
1879
1881
1882
1877
1888
1874
1873
1874
1872
1870
1869
1867
1867
1869
1865
1859
1857
1861
1865
1863
1858
1858
1863
1862
1859
1860
1854
1855
1855
1856
1849
1855
1859
1859
1860
1858
1861
1870
1863
1867
1867
1863
1870
1871
1872
1870
1872
1874
1873
1872
1874
1872
1875
1872
1872
1866
1870
1872
1865
1863
1861
1859
1867
1862
1867
1861
1867
1867
1866
1861
1858
1859
1856
1853
1853
1851
1846
1855
1850
1853
1846
1850
1853
1855
1857
1855
1851
1851
1855
1860
1855
1859
1858
1866
1865
1862
1866
1867
1866
1863
1866
1867
1865
1863
1861
1859
1859
1861
1861
1859
1855
1846
1858
1856
1851
1850
1853
1855
1849
1849
1853
1847
1855
1854
1856
1852
1840
1854
1850
1846
1847
1853
1851
1852
1846
1851
1846
1850
1853
1851
1849
1849
1853
1849
1847
1849
1845
1856
1843
1850
1853
1855
1857
1856
1855
1859
1861
1862
1859
1863
1869
1866
1872
1869
1873
1872
1871
1882
1883
1879
1883
1877
1887
1886
1887
1888
1887
1891
1883
1886
1881
1885
1885
1883
1887
1874
1874
1882
1882
1875
1875
1886
1882
1879
1879
1875
1875
1879
1874
1875
1872
1872
1873
1875
1873
1870
1872
1872
1872
1867
1866
1861
1866
1866
1861
1858
1866
1863
1865
1867
1865
1864
1869
1863
1862
1862
1865
1862
1857
1859
1857
1855
1862
1858
1857
1859
1855
1859
1854
1855
1858
1857
1861
1855
1858
1851
1846
1856
1856
1855
1851
1854
1856
1853
1857
1855
1856
1854
1867
1858
1858
1857
1866
1862
1858
1863
1865
1866
1867
1869
1871
1865
1870
1867
1869
1866
1871
1870
1861
1863
1861
1858
1862
1859
1856
1857
1855
1859
1858
1858
1861
1863
1863
1862
1862
1857
1855
1863
1854
1852
1854
1849
1854
1854
1855
1852
1847
1855
1854
1854
1852
1847
1852
1847
1847
1845
1842
1851
1847
1842
1842
1854
1851
1847
1847
1850
1849
1849
1846
1846
1847
1846
1855
1855
1851
1851
1853
1852
1854
1855
1857
1853
1859
1852
1852
1847
1852
1853
1847
1853
1854
1849
1853
1859
1853
1855
1856
1869
1861
1857
1867
1872
1876
1878
1877
1879
1883
1890
1889
1889
1887
1898
1891
1889
1887
1892
1894
1895
1893
1897
1889
1888
1883
1885
1882
1890
1881
1882
1879
1879
1877
1873
1872
1872
1872
1867
1863
1872
1866
1866
1866
1859
1871
1871
1867
1861
1861
1871
1867
1862
1865
1867
1867
1865
1869
1867
1867
1863
1870
1863
1863
1858
1863
1862
1867
1858
1859
1863
1862
1858
1859
1866
1871
1868
1869
1867
1867
1871
1871
1867
1866
1864
1870
1865
1866
1871
1867
1871
1867
1866
1861
1865
1863
1862
1860
1859
1861
1863
1859
1859
1857
1856
1856
1862
1863
1860
1862
1865
1858
1856
1853
1850
1850
1851
1848
1847
1849
1847
1849
1847
1850
1852
1855
1855
1861
1851
1856
1853
1854
1852
1850
1857
1860
1858
1856
1855
1857
1860
1861
1859
1854
1857
1865
1855
1858
1858
1869
1861
1861
1857
1854
1854
1863
1858
1856
1853
1855
1856
1854
1853
1851
1847
1857
1856
1854
1850
1851
1854
1852
1845
1847
1851
1851
1846
1846
1843
1847
1845
1841
1847
1843
1846
1843
1842
1845
1840
1841
1842
1841
1847
1842
1846
1851
1855
1854
1855
1861
1863
1869
1866
1861
1866
1872
1864
1871
1882
1875
1882
1883
1888
1886
1885
1897
1888
1893
1887
1895
1895
1894
1895
1890
1892
1899
1891
1890
1887
1887
1887
1885
1886
1879
1883
1883
1885
1883
1879
1882
1887
1882
1875
1877
1875
1879
1877
1879
1872
1871
1873
1872
1871
1871
1873
1872
1866
1870
1867
1866
1869
1867
1868
1858
1857
1862
1857
1860
1853
1862
1857
1859
1857
1854
1857
1867
1858
1860
1857
1858
1867
1867
1867
1867
1870
1875
1872
1874
1868
1870
1871
1870
1871
1872
1877
1873
1872
1872
1874
1884
1872
1870
1866
1866
1869
1869
1869
1869
1865
1865
1871
1870
1870
1863
1868
1867
1861
1862
1863
1863
1862
1866
1862
1866
1866
1871
1869
1862
1863
1859
1862
1867
1866
1861
1862
1872
1861
1858
1859
1863
1860
1862
1857
1853
1853
1856
1854
1850
1847
1850
1855
1851
1847
1840
1843
1843
1844
1844
1842
1846
1850
1847
1853
1856
1850
1850
1845
1847
1847
1853
1853
1850
1854
1847
1853
1851
1851
1852
1845
1850
1857
1854
1854
1843
1853
1853
1850
1847
1842
1847
1851
1854
1853
1843
1853
1854
1845
1845
1845
1853
1854
1855
1855
1858
1863
1867
1872
1871
1867
1872
1878
1878
1882
1877
1883
1885
1889
1893
1895
1899
1903
1902
1893
1893
1895
1895
1889
1890
1887
1887
1891
1890
1887
1879
1879
1883
1879
1878
1875
1882
1882
1882
1883
1879
1883
1887
1885
1881
1873
1875
1875
1878
1874
1871
1872
1877
1872
1872
1871
1873
1877
1874
1872
1872
1875
1876
1875
1872
1869
1869
1865
1859
1856
1855
1854
1853
1851
1856
1847
1845
1851
1849
1849
1845
1843
1851
1852
1851
1844
1851
1854
1854
1854
1853
1855
1861
1862
1864
1859
1858
1863
1862
1862
1863
1873
1872
1870
1867
1867
1872
1877
1873
1878
1872
1875
1877
1874
1872
1872
1872
1872
1872
1873
1869
1872
1870
1875
1875
1872
1872
1873
1872
1872
1870
1871
1869
1867
1869
1858
1863
1867
1870
1863
1861
1866
1863
1855
1859
1855
1855
1856
1857
1854
1851
1855
1857
1855
1853
1853
1854
1853
1856
1848
1841
1847
1823
1863
1895
1878
1829
1851
1899
1882
1873
1878
1877
1872
1866
1858
1859
1851
1853
1855
1845
1849
1849
1845
1846
1843
1843
1838
1841
1846
1846
1846
1850
1844
1851
1849
1855
1855
1851
1857
1856
1862
1861
1861
1867
1860
1869
1872
1872
1875
1874
1879
1875
1877
1882
1879
1878
1889
1889
1887
1887
1891
1891
1890
1892
1891
1892
1894
1895
1895
1888
1894
1894
1893
1887
1882
1891
1889
1884
1891
1879
1885
1884
1887
1873
1873
1881
1879
1874
1875
1875
1874
1875
1877
1876
1874
1879
1876
1873
1874
1872
1878
1875
1879
1872
1872
1873
1872
1873
1871
1871
1872
1870
1869
1870
1863
1872
1872
1872
1869
1867
1874
1874
1872
1870
1872
1872
1873
1873
1873
1871
1873
1877
1893
1877
1878
1883
1879
1881
1889
1882
1885
1887
1881
1874
1872
1875
1872
1874
1873
1871
1873
1871
1870
1869
1867
1869
1870
1865
1862
1862
1862
1866
1867
1862
1859
1869
1862
1853
1863
1857
1859
1857
1855
1858
1853
1855
1855
1855
1851
1848
1853
1853
1855
1851
1853
1854
1857
1856
1858
1854
1858
1855
1852
1853
1855
1862
1858
1857
1866
1855
1865
1860
1863
1862
1861
1862
1859
1855
1854
1852
1856
1854
1858
1856
1855
1862
1859
1855
1854
1853
1856
1859
1859
1856
1857
1866
1869
1872
1872
1875
1885
1887
1891
1895
1893
1904
1895
1901
1897
1898
1903
1906
1909
1905
1905
1909
1907
1909
1911
1908
1908
1915
1909
1904
1902
1903
1899
1888
1899
1895
1899
1897
1895
1893
1890
1901
1893
1890
1887
1883
1889
1885
1890
1888
1890
1894
1894
1891
1888
1886
1888
1887
1889
1885
1887
1888
1887
1887
1886
1879
1882
1879
1877
1879
1879
1877
1879
1879
1875
1874
1875
1877
1878
1875
1877
1879
1873
1873
1872
1874
1878
1878
1879
1874
1877
1878
1880
1882
1879
1874
1882
1879
1877
1872
1872
1888
1873
1872
1875
1873
1875
1875
1874
1874
1871
1872
1877
1872
1869
1870
1872
1870
1868
1870
1866
1868
1867
1871
1867
1861
1870
1865
1863
1866
1863
1867
1870
1869
1874
1862
1864
1866
1856
1858
1859
1862
1857
1855
1855
1854
1851
1851
1857
1854
1854
1859
1860
1859
1860
1858
1861
1858
1861
1855
1858
1865
1859
1861
1858
1857
1861
1862
1862
1859
1861
1863
1863
1863
1861
1865
1866
1863
1856
1859
1863
1862
1863
1863
1862
1865
1869
1863
1862
1856
1862
1861
1856
1861
1861
1857
1865
1871
1869
1871
1875
1878
1879
1883
1884
1888
1897
1893
1904
1898
1903
1904
1906
1905
1908
1909
1914
1915
1915
1917
1914
1926
1915
1911
1915
1918
1922
1918
1918
1917
1919
1919
1920
1915
1906
1907
1917
1913
1914
1918
1913
1919
1914
1917
1911
1913
1916
1919
1919
1918
1911
1910
1907
1904
1903
1901
1902
1901
1900
1900
1887
1898
1888
1887
1879
1879
1883
1885
1889
1889
1887
1894
1889
1887
1889
1887
1897
1893
1895
1893
1891
1899
1891
1890
1891
1891
1891
1893
1903
1891
1890
1895
1892
1887
1891
1887
1887
1885
1884
1879
1874
1885
1887
1882
1872
1876
1884
1877
1875
1874
1875
1879
1878
1881
1882
1879
1885
1885
1877
1878
1882
1887
1879
1879
1876
1873
1877
1873
1871
1865
1863
1867
1866
1862
1861
1857
1863
1859
1862
1857
1859
1867
1870
1860
1863
1867
1863
1866
1871
1863
1860
1861
1869
1872
1865
1867
1863
1865
1863
1859
1856
1857
1858
1857
1855
1857
1863
1858
1856
1853
1857
1859
1856
1859
1857
1858
1861
1863
1861
1862
1856
1859
1857
1853
1852
1857
1854
1857
1854
1851
1855
1861
1854
1857
1855
1853
1855
1847
1855
1851
1855
1858
1865
1862
1861
1863
1872
1872
1877
1872
1879
1886
1891
1890
1893
1895
1903
1904
1907
1910
1909
1916
1910
1914
1915
1917
1919
1917
1919
1918
1919
1914
1915
1915
1915
1915
1919
1923
1922
1922
1923
1921
1919
1925
1919
1917
1911
1915
1911
1915
1914
1913
1914
1914
1913
1907
1906
1913
1911
1908
1905
1906
1905
1904
1906
1904
1902
1899
1901
1897
1898
1903
1897
1901
1901
1904
1903
1903
1903
1900
1894
1897
1895
1893
1895
1894
1899
1902
1898
1900
1897
1899
1902
1903
1899
1899
1899
1901
1897
1893
1898
1895
1899
1895
1895
1893
1895
1891
1885
1891
1891
1892
1893
1887
1885
1883
1886
1881
1882
1885
1877
1881
1877
1872
1872
1871
1872
1873
1872
1866
1867
1869
1863
1861
1859
1863
1863
1866
1863
1859
1862
1857
1853
1859
1857
1863
1864
1859
1863
1865
1863
1865
1867
1856
1869
1863
1869
1867
1871
1871
1871
1866
1863
1865
1866
1859
1857
1859
1862
1851
1852
1847
1853
1854
1856
1854
1858
1855
1851
1850
1854
1861
1855
1854
1850
1853
1855
1858
1852
1850
1847
1851
1853
1851
1853
1856
1855
1851
1844
1846
1850
1855
1855
1856
1851
1854
1855
1855
1857
1853
1859
1857
1855
1854
1846
1851
1855
1855
1855
1857
1862
1866
1863
1861
1862
1871
1880
1883
1885
1886
1885
1897
1902
1903
1907
1910
1907
1919
1919
1917
1919
1923
1925
1919
1913
1919
1919
1919
1919
1911
1911
1917
1919
1917
1917
1919
1919
1919
1919
1920
1915
1913
1915
1907
1904
1904
1914
1909
1905
1904
1910
1911
1910
1910
1904
1904
1907
1905
1907
1901
1897
1900
1897
1899
1893
1885
1885
1888
1883
1877
1875
1881
1875
1877
1877
1877
1877
1877
1877
1872
1873
1873
1875
1873
1872
1873
1875
1873
1879
1881
1885
1883
1881
1889
1882
1889
1885
1883
1881
1889
1885
1889
1889
1893
1889
1889
1897
1893
1889
1885
1889
1883
1883
1881
1883
1883
1889
1890
1886
1881
1875
1877
1873
1875
1874
1867
1873
1872
1869
1862
1861
1857
1858
1853
1853
1853
1857
1855
1853
1845
1845
1853
1853
1853
1853
1853
1849
1853
1853
1849
1849
1851
1851
1857
1851
1857
1853
1853
1849
1853
1851
1858
1853
1849
1849
1851
1857
1851
1845
1853
1853
1856
1857
1857
1853
1855
1857
1857
1855
1855
1857
1851
1858
1857
1853
1853
1853
1857
1857
1849
1851
1857
1849
1851
1849
1845
1849
1849
1843
1845
1842
1845
1840
1837
1837
1842
1841
1841
1840
1839
1841
1842
1845
1841
1845
1851
1850
1849
1849
1853
1859
1865
1865
1872
1873
1875
1888
1889
1889
1901
1901
1904
1905
1907
1915
1909
1913
1909
1913
1909
1917
1913
1913
1909
1917
1909
1907
1907
1909
1909
1906
1905
1902
1901
1901
1903
1899
1899
1899
1899
1904
1904
1905
1921
1905
1907
1904
1904
1899
1891
1893
1883
1891
1889
1885
1891
1883
1883
1881
1886
1881
1877
1879
1875
1873
1875
1881
1874
1873
1869
1873
1877
1873
1873
1873
1875
1881
1876
1874
1872
1869
1871
1865
1859
1861
1861
1863
1859
1857
1853
1853
1859
1857
1857
1857
1861
1867
1863
1867
1861
1865
1869
1869
1865
1866
1859
1865
1865
1867
1859
1871
1867
1867
1867
1861
1869
1867
1859
1861
1861
1861
1865
1857
1856
1853
1857
1858
1855
1849
1849
1853
1853
1853
1851
1843
1851
1849
1847
1845
1841
1849
1850
1845
1849
1845
1853
1845
1845
1843
1841
1841
1843
1849
1845
1841
1853
1851
1851
1851
1850
1853
1850
1843
1844
1837
1842
1843
1841
1841
1841
1841
1842
1841
1841
1837
1849
1843
1845
1845
1842
1843
1843
1849
1843
1840
1845
1845
1840
1841
1841
1840
1841
1845
1841
1837
1841
1841
1843
1841
1841
1841
1840
1840
1841
1837
1840
1840
1841
1840
1846
1841
1841
1840
1837
1837
1841
1841
1847
1850
1849
1853
1869
1872
1873
1877
1881
1889
1890
1891
1893
1903
1904
1904
1901
1901
1909
1905
1904
1899
1901
1904
1904
1904
1901
1889
1897
1897
1899
1897
1899
1902
1897
1893
1893
1883
1893
1891
1888
1885
1881
1889
1889
1885
1881
1883
1883
1881
1875
1873
1872
1873
1873
1869
1867
1867
1869
1867
1865
1865
1867
1869
1873
1873
1873
1873
1881
1877
1885
1881
1885
1885
1883
1883
1877
1877
1889
1883
1885
1881
1877
1879
1877
1873
1871
1865
1869
1870
1861
1858
1858
1859
1857
1861
1853
1849
1853
1853
1857
1853
1853
1851
1849
1853
1853
1849
1859
1865
1869
1872
1859
1867
1869
1865
1857
1866
1866
1857
1857
1853
1857
1857
1861
1853
1850
1849
1851
1855
1857
1862
1851
1853
1851
1851
1853
1849
1853
1853
1849
1843
1843
1858
1851
1842
1841
1841
1843
1851
1849
1845
1840
1841
1843
1844
1840
1840
1842
1841
1837
1842
1840
1845
1845
1849
1843
1842
1845
1845
1841
1840
1843
1841
1841
1837
1837
1833
1837
1837
1833
1833
1821
1837
1835
1835
1837
1833
1837
1834
1833
1840
1827
1840
1831
1836
1837
1839
1849
1840
1840
1843
1841
1842
1841
1841
1837
1833
1840
1842
1841
1843
1841
1851
1851
1858
1855
1855
1859
1861
1865
1859
1867
1871
1872
1872
1873
1874
1877
1881
1877
1875
1877
1881
1887
1881
1881
1885
1883
1893
1893
1889
1890
1893
1894
1893
1889
1885
1891
1898
1889
1883
1881
1881
1875
1875
1872
1874
1879
1877
1875
1878
1881
1873
1874
1875
1869
1872
1873
1872
1873
1872
1872
1875
1872
1873
1872
1865
1872
1872
1865
1865
1865
1872
1861
1866
1859
1861
1861
1857
1857
1849
1851
1853
1851
1851
1849
1849
1849
1853
1851
1851
1843
1845
1853
1856
1853
1850
1853
1856
1857
1861
1861
1865
1869
1871
1869
1867
1873
1869
1868
1866
1865
1865
1859
1857
1851
1851
1853
1851
1849
1841
1840
1842
1840
1843
1840
1837
1839
1835
1837
1837
1835
1840
1842
1839
1837
1841
1842
1841
1841
1840
1835
1841
1843
1841
1842
1843
1843
1841
1841
1835
1840
1841
1845
1841
1840
1841
1845
1843
1843
1845
1842
1843
1843
1845
1843
1845
1849
1849
1849
1841
1843
1845
1840
1843
1834
1827
1841
1835
1837
1837
1830
1835
1833
1837
1837
1835
1839
1841
1840
1840
1840
1843
1841
1843
1842
1842
1843
1841
1845
1841
1842
1845
1845
1845
1849
1857
1857
1862
1861
1861
1865
1869
1873
1872
1869
1865
1869
1872
1879
1888
1889
1889
1891
1888
1890
1886
1889
1893
1887
1890
1889
1885
1885
1885
1883
1881
1887
1883
1877
1873
1872
1874
1871
1869
1869
1861
1861
1861
1859
1857
1862
1867
1867
1869
1878
1859
1865
1865
1861
1857
1853
1859
1858
1853
1853
1849
1853
1851
1853
1851
1845
1845
1853
1851
1851
1849
1858
1857
1851
1853
1856
1857
1857
1857
1857
1853
1859
1859
1857
1861
1857
1863
1857
1867
1861
1859
1863
1865
1861
1857
1857
1857
1851
1853
1857
1855
1857
1857
1851
1850
1851
1856
1857
1853
1857
1857
1857
1856
1851
1849
1845
1851
1851
1855
1849
1850
1859
1850
1849
1849
1853
1853
1853
1853
1851
1853
1859
1853
1853
1851
1853
1857
1853
1849
1857
1847
1845
1845
1841
1841
1845
1845
1845
1849
1841
1840
1841
1841
1841
1840
1841
1842
1843
1843
1845
1841
1849
1840
1840
1837
1837
1845
1843
1841
1841
1840
1842
1840
1841
1835
1835
1835
1833
1824
1833
1837
1833
1837
1840
1835
1838
1843
1843
1841
1841
1841
1853
1847
1843
1851
1843
1849
1849
1853
1849
1853
1857
1857
1853
1853
1861
1866
1861
1873
1867
1865
1877
1874
1872
1873
1873
1883
1885
1885
1885
1881
1883
1885
1883
1885
1888
1887
1883
1881
1881
1881
1885
1885
1895
1873
1877
1877
1873
1873
1873
1877
1877
1873
1873
1873
1872
1877
1873
1873
1873
1875
1875
1873
1872
1872
1872
1874
1877
1872
1872
1869
1873
1872
1872
1869
1869
1872
1857
1869
1865
1865
1869
1865
1867
1865
1867
1866
1863
1861
1851
1857
1861
1861
1859
1853
1858
1861
1857
1853
1853
1857
1861
1861
1870
1865
1865
1861
1857
1859
1865
1865
1853
1857
1865
1865
1867
1861
1861
1865
1865
1861
1861
1857
1863
1864
1861
1859
1857
1857
1865
1859
1857
1858
1858
1854
1857
1849
1853
1857
1850
1840
1841
1842
1845
1841
1841
1842
1840
1841
1843
1845
1841
1841
1852
1847
1849
1843
1840
1842
1845
1843
1843
1859
1845
1843
1841
1835
1840
1837
1839
1842
1840
1837
1840
1840
1841
1841
1849
1849
1852
1849
1849
1845
1843
1849
1849
1840
1845
1853
1847
1849
1850
1845
1843
1849
1850
1843
1851
1857
1857
1857
1849
1849
1853
1855
1855
1853
1858
1861
1865
1869
1865
1865
1872
1873
1882
1883
1883
1889
1899
1899
1893
1893
1901
1904
1897
1901
1901
1899
1899
1899
1891
1893
1889
1889
1893
1885
1885
1881
1882
1877
1873
1877
1881
1886
1877
1875
1877
1881
1881
1881
1882
1882
1881
1883
1887
1875
1881
1885
1875
1874
1873
1874
1875
1875
1875
1874
1873
1874
1875
1872
1872
1872
1869
1869
1866
1865
1865
1863
1867
1861
1871
1872
1874
1872
1869
1869
1867
1865
1871
1873
1872
1869
1869
1869
1865
1861
1861
1861
1866
1867
1860
1860
1857
1865
1861
1857
1863
1861
1865
1861
1872
1870
1865
1865
1867
1865
1869
1865
1869
1865
1867
1871
1872
1873
1869
1861
1861
1869
1861
1861
1857
1859
1865
1861
1861
1857
1859
1859
1865
1859
1857
1861
1861
1859
1861
1853
1855
1857
1853
1859
1851
1849
1849
1853
1849
1845
1849
1849
1841
1845
1849
1849
1850
1851
1850
1845
1853
1851
1842
1843
1851
1845
1841
1841
1845
1841
1842
1841
1841
1843
1853
1857
1853
1857
1857
1861
1861
1857
1857
1856
1861
1863
1861
1854
1856
1859
1858
1857
1853
1857
1857
1859
1865
1865
1872
1873
1881
1885
1885
1892
1889
1889
1893
1890
1891
1893
1891
1891
1893
1889
1893
1891
1891
1893
1889
1889
1887
1893
1891
1893
1891
1885
1890
1891
1893
1893
1893
1901
1903
1897
1901
1898
1897
1897
1897
1899
1899
1897
1901
1901
1901
1904
1901
1896
1893
1891
1889
1893
1885
1885
1889
1889
1889
1889
1885
1889
1885
1881
1876
1883
1885
1881
1875
1875
1872
1867
1873
1873
1867
1873
1874
1872
1865
1865
1857
1865
1865
1865
1865
1869
1877
1874
1872
1867
1872
1873
1872
1872
1869
1867
1869
1869
1869
1872
1872
1872
1872
1867
1869
1865
1872
1865
1873
1869
1869
1872
1872
1863
1867
1859
1868
1865
1869
1861
1859
1861
1861
1857
1857
1861
1861
1861
1858
1857
1858
1867
1857
1857
1857
1857
1861
1861
1857
1851
1851
1853
1857
1853
1849
1845
1857
1849
1849
1851
1853
1851
1843
1853
1849
1851
1845
1847
1841
1841
1851
1849
1850
1850
1851
1853
1851
1853
1853
1849
1853
1859
1861
1855
1851
1857
1858
1859
1859
1851
1853
1853
1872
1845
1845
1851
1853
1857
1853
1851
1857
1858
1858
1851
1849
1855
1859
1857
1861
1851
1857
1859
1867
1867
1869
1872
1883
1873
1877
1877
1887
1889
1889
1897
1893
1897
1905
1901
1899
1897
1904
1903
1901
1901
1899
1897
1901
1901
1893
1889
1897
1897
1889
1891
1885
1889
1889
1889
1889
1883
1889
1898
1898
1897
1895
1901
1903
1903
1901
1899
1897
1899
1901
1899
1898
1904
1901
1898
1898
1887
1891
1889
1883
1882
1875
1875
1881
1874
1877
1873
1877
1881
1877
1873
1874
1873
1879
1882
1875
1873
1879
1881
1877
1882
1883
1888
1883
1885
1883
1875
1877
1883
1879
1875
1873
1878
1874
1873
1873
1872
1873
1873
1872
1872
1865
1872
1873
1872
1872
1871
1873
1875
1881
1873
1872
1875
1873
1869
1867
1869
1867
1867
1867
1860
1861
1865
1872
1865
1857
1853
1857
1861
1857
1853
1857
1857
1857
1857
1853
1853
1857
1861
1853
1857
1853
1856
1857
1858
1865
1851
1861
1858
1859
1857
1853
1859
1861
1859
1861
1857
1861
1857
1867
1865
1861
1869
1867
1857
1862
1862
1861
1857
1853
1849
1843
1840
1845
1841
1841
1841
1841
1839
1842
1845
1837
1843
1849
1841
1835
1837
1843
1841
1840
1840
1841
1845
1845
1849
1847
1849
1851
1861
1857
1856
1857
1867
1863
1867
1872
1873
1875
1882
1881
1883
1889
1889
1897
1899
1905
1905
1905
1907
1917
1915
1913
1917
1913
1917
1913
1917
1909
1905
1905
1904
1904
1907
1909
1905
1905
1913
1914
1913
1915
1913
1914
1907
1913
1904
1904
1901
1904
1899
1903
1897
1893
1894
1893
1891
1883
1881
1877
1881
1879
1874
1875
1875
1873
1873
1874
1872
1875
1873
1869
1869
1872
1875
1873
1875
1883
1881
1885
1885
1889
1887
1885
1891
1893
1881
1887
1889
1893
1889
1885
1879
1877
1881
1875
1873
1873
1869
1872
1869
1872
1863
1861
1869
1873
1869
1869
1870
1869
1873
1872
1869
1867
1869
1872
1872
1867
1865
1869
1872
1867
1872
1869
1870
1872
1867
1867
1861
1869
1871
1873
1857
1859
1861
1857
1857
1853
1857
1857
1861
1857
1853
1859
1869
1861
1861
1855
1853
1855
1853
1851
1853
1843
1853
1851
1849
1845
1845
1851
1845
1849
1851
1842
1849
1851
1849
1851
1851
1859
1859
1856
1861
1852
1853
1856
1857
1849
1847
1849
1841
1841
1845
1842
1841
1843
1841
1841
1840
1845
1851
1844
1849
1851
1853
1850
1853
1851
1845
1853
1851
1847
1851
1850
1855
1853
1853
1845
1853
1853
1853
1857
1851
1859
1867
1869
1867
1867
1869
1872
1873
1883
1877
1877
1881
1889
1885
1885
1893
1904
1901
1901
1904
1905
1907
1907
1909
1909
1907
1907
1906
1904
1899
1898
1895
1897
1891
1893
1893
1901
1901
1893
1899
1891
1901
1897
1895
1893
1901
1895
1902
1898
1898
1893
1901
1891
1889
1885
1881
1881
1885
1885
1881
1875
1881
1877
1877
1872
1873
1869
1865
1861
1861
1862
1869
1873
1872
1872
1872
1878
1873
1873
1872
1877
1877
1880
1877
1877
1875
1885
1881
1881
1881
1877
1881
1875
1881
1883
1889
1891
1889
1889
1883
1883
1889
1885
1888
1883
1886
1885
1885
1885
1881
1885
1891
1885
1881
1877
1875
1875
1874
1873
1872
1872
1872
1873
1865
1867
1867
1866
1861
1866
1857
1849
1853
1858
1851
1845
1841
1847
1845
1851
1847
1845
1845
1841
1843
1841
1841
1843
1843
1849
1845
1847
1851
1851
1855
1855
1853
1853
1853
1855
1851
1845
1853
1849
1853
1851
1851
1857
1853
1853
1853
1853
1857
1851
1851
1845
1843
1841
1840
1841
1840
1840
1841
1843
1840
1840
1841
1840
1840
1840
1840
1841
1846
1857
1845
1841
1841
1845
1844
1841
1841
1840
1841
1840
1843
1840
1841
1849
1841
1841
1843
1845
1849
1851
1855
1856
1858
1859
1866
1865
1865
1865
1874
1873
1874
1877
1877
1886
1881
1885
1887
1885
1889
1889
1885
1889
1883
1889
1887
1893
1889
1893
1895
1899
1899
1893
1891
1893
1893
1889
1889
1890
1897
1904
1897
1897
1897
1904
1904
1905
1901
1902
1897
1901
1903
1901
1897
1904
1899
1901
1899
1901
1891
1893
1889
1886
1881
1881
1879
1874
1872
1872
1874
1872
1872
1872
1872
1872
1872
1872
1867
1869
1877
1872
1872
1869
1872
1872
1872
1873
1872
1872
1877
1876
1873
1875
1875
1875
1872
1872
1869
1869
1872
1877
1872
1872
1869
1872
1872
1869
1865
1869
1872
1867
1869
1869
1877
1872
1867
1865
1869
1861
1859
1861
1863
1857
1857
1857
1857
1857
1853
1853
1853
1853
1851
1853
1851
1855
1857
1859
1851
1843
1859
1857
1857
1853
1857
1857
1857
1858
1861
1861
1865
1866
1861
1858
1857
1861
1861
1861
1855
1853
1853
1857
1843
1843
1848
1853
1844
1843
1841
1840
1841
1841
1841
1835
1833
1840
1837
1834
1833
1833
1837
1829
1835
1837
1840
1841
1842
1840
1840
1840
1843
1841
1840
1837
1840
1845
1845
1840
1840
1837
1843
1837
1835
1835
1835
1835
1827
1837
1829
1831
1837
1825
1837
1840
1842
1845
1849
1851
1856
1859
1857
1872
1869
1872
1873
1887
1877
1885
1893
1891
1897
1897
1897
1893
1895
1904
1906
1901
1897
1898
1901
1901
1899
1901
1901
1901
1897
1893
1891
1889
1891
1889
1889
1885
1885
1889
1889
1889
1885
1881
1883
1877
1877
1874
1873
1873
1874
1887
1873
1872
1874
1874
1874
1874
1875
1875
1874
1872
1872
1865
1865
1872
1861
1861
1861
1865
1866
1866
1858
1866
1869
1872
1872
1867
1867
1869
1869
1867
1859
1869
1865
1872
1872
1871
1872
1875
1875
1877
1873
1873
1873
1875
1872
1873
1873
1872
1874
1872
1871
1869
1867
1867
1859
1861
1853
1861
1857
1853
1850
1845
1853
1853
1853
1849
1857
1853
1841
1840
1841
1841
1843
1843
1845
1842
1843
1849
1841
1841
1841
1845
1845
1845
1850
1843
1843
1853
1849
1843
1845
1850
1841
1837
1841
1840
1840
1841
1843
1841
1841
1840
1841
1840
1841
1840
1840
1841
1845
1840
1840
1840
1841
1840
1838
1837
1849
1843
1843
1847
1845
1845
1851
1853
1845
1843
1855
1851
1849
1853
1849
1853
1853
1851
1849
1841
1841
1853
1845
1845
1845
1840
1841
1845
1845
1841
1837
1841
1841
1845
1845
1845
1845
1853
1857
1865
1861
1872
1873
1872
1872
1873
1877
1878
1877
1877
1883
1889
1885
1891
1889
1888
1897
1897
1897
1889
1893
1899
1898
1901
1893
1893
1899
1901
1891
1889
1893
1894
1889
1889
1881
1889
1889
1890
1885
1885
1883
1883
1885
1881
1879
1881
1881
1881
1887
1881
1885
1889
1883
1875
1877
1875
1877
1873
1872
1869
1869
1872
1873
1867
1861
1861
1869
1865
1869
1872
1872
1873
1872
1871
1869
1872
1871
1869
1865
1867
1869
1873
1872
1872
1871
1873
1877
1872
1872
1870
1873
1869
1869
1861
1865
1865
1865
1866
1861
1857
1857
1857
1853
1845
1851
1853
1853
1850
1853
1841
1845
1849
1847
1849
1853
1853
1851
1849
1851
1845
1847
1853
1849
1847
1845
1849
1856
1855
1851
1850
1857
1858
1856
1860
1851
1859
1861
1861
1861
1858
1861
1857
1863
1857
1857
1858
1861
1859
1861
1861
1869
1861
1861
1861
1858
1853
1853
1849
1849
1845
1849
1849
1851
1845
1849
1849
1853
1853
1857
1853
1859
1853
1847
1847
1845
1849
1843
1853
1845
1841
1842
1849
1853
1851
1850
1845
1851
1841
1845
1842
1840
1851
1846
1849
1845
1849
1853
1853
1851
1849
1851
1857
1853
1851
1850
1851
1858
1857
1863
1849
1872
1872
1867
1873
1872
1873
1875
1881
1883
1875
1885
1890
1890
1887
1891
1891
1893
1893
1895
1887
1889
1889
1889
1885
1883
1885
1889
1885
1893
1881
1885
1889
1885
1885
1873
1877
1883
1877
1879
1877
1881
1877
1882
1877
1877
1873
1875
1879
1877
1873
1872
1872
1872
1874
1872
1872
1872
1866
1867
1869
1872
1869
1867
1869
1865
1869
1861
1865
1863
1861
1861
1865
1861
1865
1861
1859
1863
1861
1865
1861
1859
1869
1867
1865
1858
1867
1868
1859
1859
1856
1858
1858
1851
1851
1853
1859
1858
1856
1853
1857
1859
1830
1862
1902
1886
1835
1855
1901
1887
1881
1881
1879
1873
1873
1867
1866
1861
1857
1856
1845
1853
1847
1843
1843
1835
1839
1841
1835
1835
1827
1829
1827
1825
1829
1827
1833
1837
1834
1837
1834
1835
1840
1841
1840
1841
1849
1845
1843
1847
1843
1843
1842
1845
1841
1840
1840
1845
1840
1837
1841
1841
1853
1843
1847
1844
1849
1851
1853
1843
1846
1851
1845
1842
1841
1843
1840
1837
1837
1835
1829
1829
1835
1835
1837
1833
1835
1840
1841
1840
1838
1840
1841
1840
1841
1840
1841
1853
1850
1853
1847
1853
1857
1851
1849
1845
1857
1861
1861
1865
1865
1873
1879
1875
1881
1882
1881
1891
1891
1893
1885
1893
1893
1893
1893
1883
1885
1890
1889
1885
1877
1881
1884
1877
1879
1873
1875
1877
1873
1873
1873
1875
1877
1875
1872
1867
1871
1869
1861
1865
1856
1857
1865
1862
1861
1849
1857
1855
1853
1858
1853
1857
1853
1857
1857
1850
1856
1853
1855
1843
1845
1853
1858
1861
1858
1857
1859
1865
1857
1861
1857
1865
1859
1859
1861
1865
1865
1870
1869
1866
1867
1869
1871
1867
1869
1869
1865
1866
1869
1865
1863
1867
1861
1857
1853
1853
1857
1857
1857
1857
1853
1855
1857
1833
1841
1843
1845
1845
1843
1850
1841
1849
1851
1843
1843
1841
1851
1849
1853
1854
1849
1853
1851
1853
1847
1845
1849
1854
1850
1843
1843
1849
1853
1845
1854
1845
1853
1859
1851
1853
1845
1843
1843
1843
1845
1841
1845
1841
1840
1835
1840
1840
1841
1841
1840
1841
1841
1841
1840
1841
1842
1841
1841
1837
1845
1843
1841
1845
1841
1843
1841
1849
1849
1843
1841
1843
1849
1849
1843
1845
1843
1843
1845
1841
1841
1840
1842
1843
1841
1835
1840
1841
1841
1841
1846
1845
1853
1861
1859
1865
1869
1872
1874
1877
1889
1883
1883
1890
1887
1882
1879
1885
1889
1883
1885
1885
1891
1889
1887
1872
1875
1881
1881
1881
1882
1877
1877
1883
1877
1881
1877
1885
1883
1881
1881
1873
1875
1877
1873
1873
1867
1877
1872
1869
1865
1869
1871
1861
1861
1859
1857
1857
1866
1861
1857
1857
1857
1859
1856
1856
1853
1853
1853
1857
1865
1856
1865
1865
1867
1865
1859
1865
1865
1859
1861
1859
1863
1861
1861
1858
1851
1857
1861
1856
1853
1851
1857
1851
1857
1857
1852
1849
1853
1857
1853
1851
1859
1858
1857
1855
1851
1853
1855
1853
1854
1852
1853
1853
1850
1849
1846
1851
1849
1853
1858
1856
1856
1849
1843
1845
1845
1851
1857
1851
1857
1849
1846
1845
1842
1847
1843
1845
1843
1845
1845
1841
1845
1845
1843
1845
1841
1853
1841
1845
1845
1843
1849
1850
1851
1850
1843
1845
1849
1845
1845
1841
1843
1841
1840
1840
1839
1841
1841
1843
1845
1842
1840
1841
1840
1841
1841
1845
1845
1841
1842
1841
1845
1849
1843
1849
1841
1847
1845
1845
1857
1851
1843
1845
1853
1853
1843
1851
1851
1857
1858
1859
1867
1869
1865
1872
1873
1881
1881
1875
1875
1883
1890
1877
1885
1885
1889
1897
1901
1899
1891
1893
1901
1899
1891
1899
1891
1893
1891
1889
1883
1883
1881
1883
1882
1877
1874
1873
1875
1872
1875
1872
1872
1873
1873
1871
1872
1877
1873
1876
1875
1873
1877
1877
1877
1875
1873
1877
1877
1872
1872
1872
1876
1867
1873
1869
1867
1869
1869
1867
1869
1869
1872
1869
1869
1872
1867
1869
1872
1869
1869
1865
1873
1873
1875
1873
1877
1877
1885
1872
1872
1872
1872
1867
1869
1869
1870
1865
1865
1861
1859
1859
1859
1869
1861
1863
1857
1857
1861
1851
1853
1857
1851
1855
1856
1849
1851
1857
1861
1865
1861
1861
1861
1862
1859
1862
1858
1861
1862
1861
1857
1851
1859
1853
1851
1845
1847
1854
1853
1849
1849
1845
1853
1849
1850
1849
1845
1853
1853
1853
1853
1849
1849
1853
1849
1849
1849
1853
1849
1852
1853
1851
1853
1857
1845
1842
1840
1845
1846
1843
1841
1841
1845
1845
1843
1841
1845
1840
1842
1842
1841
1841
1843
1841
1845
1841
1842
1849
1850
1843
1845
1850
1855
1851
1845
1851
1856
1861
1869
1872
1883
1875
1885
1885
1890
1897
1899
1904
1904
1903
1901
1899
1898
1901
1903
1899
1901
1899
1901
1904
1898
1897
1904
1901
1897
1893
1898
1897
1893
1890
1891
1891
1893
1890
1897
1893
1891
1891
1891
1898
1891
1891
1893
1889
1889
1883
1885
1893
1889
1891
1888
1891
1885
1883
1885
1882
1873
1873
1867
1874
1867
1872
1877
1872
1872
1869
1865
1873
1872
1861
1867
1865
1871
1872
1872
1872
1874
1875
1877
1875
1874
1872
1873
1875
1877
1873
1872
1877
1873
1872
1867
1867
1873
1872
1872
1865
1861
1861
1865
1866
1866
1859
1869
1865
1869
1859
1865
1869
1865
1865
1866
1869
1873
1866
1867
1865
1861
1861
1865
1865
1865
1861
1865
1861
1857
1853
1849
1853
1849
1845
1845
1841
1845
1843
1850
1843
1853
1850
1851
1850
1849
1851
1853
1853
1851
1853
1851
1861
1861
1866
1861
1861
1861
1860
1858
1851
1853
1859
1851
1851
1849
1843
1845
1849
1841
1842
1841
1845
1849
1841
1842
1841
1843
1842
1840
1841
1835
1840
1841
1840
1840
1835
1841
1842
1841
1837
1842
1843
1853
1853
1849
1849
1849
1853
1847
1845
1849
1853
1853
1858
1857
1859
1867
1872
1872
1877
1877
1883
1883
1883
1889
1887
1893
1893
1893
1891
1891
1898
1893
1898
1893
1897
1901
1898
1893
1889
1889
1891
1891
1895
1893
1892
1898
1898
1893
1898
1889
1897
1893
1891
1898
1893
1901
1891
1893
1888
1891
1899
1893
1893
1889
1885
1891
1885
1883
1885
1883
1885
1882
1875
1875
1873
1881
1883
1877
1874
1872
1874
1873
1877
1875
1877
1879
1876
1879
1879
1879
1881
1881
1885
1886
1881
1883
1881
1877
1881
1873
1875
1874
1877
1874
1872
1871
1872
1872
1869
1869
1871
1869
1869
1859
1861
1869
1873
1867
1867
1868
1872
1867
1872
1859
1849
1865
1869
1869
1865
1873
1869
1872
1872
1869
1865
1872
1873
1871
1872
1869
1872
1872
1867
1861
1863
1859
1861
1857
1857
1857
1857
1873
1857
1853
1851
1853
1853
1845
1845
1845
1845
1849
1843
1841
1842
1843
1841
1842
1840
1841
1845
1847
1853
1853
1855
1859
1857
1845
1843
1847
1855
1851
1849
1843
1849
1857
1857
1858
1861
1859
1853
1849
1851
1849
1845
1853
1853
1853
1853
1849
1851
1849
1851
1845
1843
1849
1847
1845
1849
1845
1861
1861
1866
1869
1875
1883
1885
1883
1885
1889
1897
1893
1897
1897
1889
1901
1899
1897
1899
1899
1904
1893
1901
1897
1898
1904
1897
1895
1889
1891
1889
1890
1891
1885
1885
1885
1883
1881
1879
1885
1885
1875
1881
1884
1883
1885
1885
1881
1885
1877
1885
1881
1881
1875
1880
1879
1877
1882
1875
1873
1873
1881
1872
1867
1869
1874
1873
1872
1871
1859
1865
1869
1867
1861
1867
1869
1871
1872
1872
1867
1869
1869
1870
1866
1867
1872
1872
1869
1865
1869
1872
1872
1872
1869
1872
1872
1869
1872
1869
1873
1872
1869
1869
1865
1869
1869
1869
1865
1869
1861
1869
1865
1861
1861
1857
1866
1862
1859
1859
1859
1861
1857
1857
1851
1859
1857
1857
1851
1853
1845
1843
1844
1841
1841
1842
1849
1843
1843
1853
1845
1853
1853
1857
1849
1851
1851
1851
1851
1843
1851
1851
1853
1859
1855
1851
1857
1857
1849
1843
1851
1853
1851
1845
1851
1849
1845
1851
1849
1845
1845
1849
1843
1843
1845
1843
1847
1842
1842
1840
1840
1849
1843
1841
1841
1840
1841
1841
1843
1837
1840
1845
1843
1841
1843
1847
1858
1853
1851
1851
1861
1867
1872
1877
1881
1881
1883
1885
1889
1890
1893
1899
1899
1904
1897
1901
1904
1911
1905
1901
1901
1905
1922
1904
1907
1905
1909
1909
1907
1906
1905
1905
1904
1904
1899
1897
1901
1893
1898
1897
1899
1902
1899
1897
1893
1901
1901
1893
1901
1899
1899
1904
1901
1901
1893
1889
1893
1889
1885
1890
1882
1883
1875
1881
1875
1873
1875
1877
1873
1872
1877
1875
1881
1885
1885
1883
1885
1875
1881
1877
1877
1873
1869
1873
1873
1872
1869
1872
1872
1869
1867
1875
1873
1877
1873
1873
1877
1875
1881
1877
1874
1875
1882
1877
1882
1889
1885
1885
1881
1882
1881
1883
1885
1877
1877
1890
1877
1877
1877
1875
1875
1877
1875
1875
1874
1872
1874
1867
1865
1861
1865
1863
1859
1857
1857
1856
1865
1861
1857
1853
1853
1853
1845
1841
1841
1840
1841
1841
1840
1837
1840
1840
1835
1837
1841
1840
1843
1841
1841
1841
1845
1849
1849
1847
1849
1851
1849
1849
1851
1853
1853
1857
1856
1857
1857
1853
1859
1853
1856
1851
1849
1853
1849
1853
1850
1845
1856
1850
1845
1841
1849
1853
1853
1853
1853
1845
1845
1849
1845
1840
1843
1849
1849
1849
1845
1847
1851
1857
1859
1861
1865
1882
1881
1883
1888
1893
1899
1897
1899
1899
1904
1909
1905
1909
1909
1914
1917
1917
1911
1917
1915
1921
1921
1914
1913
1914
1917
1917
1917
1907
1905
1909
1904
1899
1898
1901
1907
1903
1904
1903
1898
1899
1899
1901
1895
1889
1891
1893
1901
1889
1890
1893
1889
1891
1893
1889
1891
1889
1889
1881
1875
1889
1881
1881
1875
1873
1879
1875
1881
1875
1881
1887
1881
1875
1872
1872
1872
1872
1871
1869
1869
1869
1872
1873
1872
1871
1877
1872
1875
1873
1874
1874
1872
1873
1865
1865
1873
1867
1863
1861
1863
1859
1867
1867
1869
1867
1873
1875
1874
1872
1872
1873
1875
1867
1867
1871
1867
1872
1869
1867
1872
1873
1872
1872
1872
1869
1872
1872
1873
1875
1872
1875
1875
1872
1869
1869
1863
1861
1866
1865
1861
1865
1865
1861
1857
1862
1857
1851
1853
1854
1849
1845
1841
1845
1841
1849
1851
1851
1853
1845
1841
1845
1843
1843
1842
1840
1841
1840
1837
1837
1839
1840
1840
1835
1837
1840
1840
1843
1840
1837
1840
1843
1841
1837
1840
1842
1841
1841
1840
1837
1833
1835
1840
1837
1825
1835
1841
1841
1845
1840
1835
1841
1841
1840
1840
1841
1853
1847
1851
1853
1853
1851
1857
1861
1859
1866
1872
1873
1873
1873
1881
1888
1890
1890
1893
1901
1905
1905
1905
1905
1909
1909
1905
1902
1906
1904
1907
1905
1909
1904
1904
1907
1905
1905
1907
1909
1909
1904
1905
1904
1905
1911
1901
1899
1897
1897
1897
1893
1890
1893
1889
1885
1889
1883
1885
1885
1889
1889
1888
1885
1881
1882
1875
1879
1873
1873
1873
1873
1869
1865
1871
1873
1873
1873
1873
1872
1885
1877
1877
1874
1877
1881
1881
1881
1875
1873
1873
1873
1875
1872
1875
1885
1881
1882
1874
1874
1875
1872
1873
1872
1869
1873
1873
1873
1873
1872
1874
1872
1865
1872
1872
1872
1873
1872
1867
1869
1872
1867
1867
1862
1861
1877
1865
1863
1858
1851
1853
1858
1857
1857
1853
1849
1849
1855
1853
1856
1857
1857
1856
1853
1854
1851
1857
1851
1849
1853
1853
1853
1845
1851
1852
1861
1856
1853
1853
1857
1857
1857
1856
1851
1850
1845
1845
1845
1843
1845
1845
1843
1841
1841
1840
1840
1840
1837
1833
1834
1834
1829
1829
1833
1840
1841
1841
1840
1835
1837
1841
1840
1837
1835
1833
1837
1840
1841
1837
1840
1840
1845
1843
1843
1845
1845
1845
1849
1853
1849
1849
1853
1857
1853
1857
1861
1857
1861
1861
1865
1872
1877
1879
1877
1885
1889
1891
1893
1891
1893
1899
1893
1901
1898
1898
1899
1901
1901
1898
1897
1904
1905
1901
1897
1897
1898
1893
1897
1890
1893
1893
1893
1885
1885
1891
1893
1889
1891
1885
1885
1893
1883
1885
1883
1885
1883
1875
1879
1877
1875
1876
1869
1872
1869
1865
1865
1865
1865
1865
1869
1869
1869
1867
1869
1871
1873
1867
1869
1866
1873
1872
1873
1873
1872
1869
1872
1869
1872
1861
1869
1873
1872
1872
1872
1872
1874
1867
1870
1865
1865
1869
1869
1869
1869
1872
1877
1872
1873
1872
1872
1877
1869
1872
1871
1866
1867
1867
1865
1867
1859
1861
1861
1859
1869
1863
1872
1865
1867
1869
1867
1865
1856
1859
1851
1851
1851
1853
1851
1849
1849
1851
1853
1849
1845
1845
1845
1843
1850
1841
1841
1845
1843
1840
1839
1837
1839
1837
1837
1833
1833
1837
1840
1837
1836
1835
1840
1840
1840
1837
1837
1841
1845
1845
1845
1841
1849
1843
1840
1840
1840
1845
1841
1841
1840
1835
1837
1829
1829
1826
1835
1839
1833
1839
1827
1829
1827
1829
1825
1827
1825
1835
1831
1833
1837
1829
1837
1840
1840
1833
1840
1849
1845
1849
1851
1857
1865
1867
1872
1872
1875
1877
1881
1885
1885
1889
1890
1893
1891
1891
1901
1899
1904
1904
1898
1904
1906
1901
1897
1901
1902
1904
1904
1901
1891
1893
1893
1893
1894
1889
1889
1885
1885
1885
1877
1883
1885
1885
1885
1881
1885
1885
1888
1881
1889
1885
1885
1888
1883
1875
1882
1881
1881
1885
1875
1875
1873
1877
1873
1869
1871
1873
1867
1869
1867
1867
1869
1865
1862
1866
1859
1865
1869
1869
1865
1869
1873
1868
1873
1873
1867
1872
1873
1873
1869
1865
1872
1869
1870
1865
1871
1867
1869
1865
1861
1859
1867
1869
1865
1861
1869
1855
1859
1853
1853
1849
1849
1857
1851
1845
1851
1849
1850
1845
1841
1841
1850
1849
1843
1845
1843
1851
1849
1847
1841
1849
1845
1845
1843
1841
1845
1849
1851
1849
1851
1855
1856
1843
1851
1846
1846
1849
1843
1843
1843
1846
1853
1857
1849
1845
1843
1841
1841
1841
1840
1839
1840
1841
1841
1842
1849
1852
1853
1845
1849
1845
1849
1851
1849
1849
1845
1855
1851
1850
1845
1841
1851
1843
1845
1840
1837
1841
1840
1840
1840
1840
1841
1835
1833
1837
1829
1837
1835
1837
1829
1833
1837
1837
1840
1829
1840
1840
1840
1837
1840
1841
1857
1871
1857
1857
1869
1867
1872
1877
1881
1877
1893
1893
1897
1893
1897
1899
1904
1904
1903
1904
1899
1901
1895
1899
1899
1895
1893
1890
1885
1891
1889
1883
1883
1885
1885
1893
1891
1885
1882
1881
1885
1885
1881
1881
1885
1885
1889
1881
1877
1877
1877
1877
1879
1889
1881
1882
1885
1885
1877
1877
1875
1874
1872
1872
1872
1873
1872
1872
1865
1859
1861
1865
1861
1857
1855
1863
1858
1857
1861
1857
1857
1857
1857
1857
1858
1861
1853
1858
1859
1861
1859
1861
1865
1861
1857
1861
1859
1857
1857
1859
1861
1857
1857
1853
1853
1849
1858
1853
1853
1851
1859
1858
1851
1865
1857
1859
1858
1856
1861
1857
1861
1857
1856
1857
1851
1857
1853
1855
1849
1842
1849
1857
1849
1849
1845
1856
1850
1841
1841
1840
1849
1845
1845
1845
1841
1851
1853
1857
1857
1851
1857
1851
1849
1845
1842
1845
1841
1841
1841
1844
1841
1840
1841
1840
1840
1843
1841
1837
1837
1835
1841
1840
1840
1840
1841
1841
1841
1840
1840
1841
1841
1840
1839
1837
1840
1840
1837
1827
1829
1825
1835
1837
1833
1833
1839
1840
1837
1835
1837
1840
1837
1835
1833
1833
1835
1840
1842
1840
1843
1841
1845
1849
1855
1843
1851
1861
1857
1861
1861
1869
1869
1872
1867
1873
1881
1885
1891
1889
1889
1895
1901
1901
1899
1899
1901
1904
1899
1901
1897
1885
1893
1885
1885
1881
1885
1885
1875
1879
1881
1877
1882
1877
1873
1875
1873
1879
1873
1873
1873
1872
1873
1875
1873
1869
1872
1874
1873
1865
1861
1865
1867
1859
1859
1859
1853
1857
1857
1861
1851
1857
1861
1851
1857
1857
1861
1863
1872
1865
1866
1865
1870
1866
1865
1871
1873
1873
1872
1872
1869
1867
1869
1865
1865
1866
1865
1871
1861
1867
1853
1859
1861
1857
1861
1856
1857
1859
1861
1857
1853
1849
1853
1854
1853
1853
1853
1853
1849
1853
1845
1843
1849
1842
1851
1847
1851
1857
1851
1851
1843
1849
1847
1849
1853
1853
1858
1857
1861
1859
1857
1853
1856
1857
1849
1855
1858
1857
1865
1866
1857
1851
1858
1861
1853
1851
1851
1853
1853
1847
1841
1841
1841
1840
1840
1837
1840
1839
1837
1837
1840
1837
1840
1835
1837
1835
1837
1841
1837
1839
1835
1841
1843
1845
1843
1840
1840
1840
1833
1833
1829
1829
1834
1837
1829
1829
1825
1827
1840
1835
1833
1840
1845
1841
1845
1841
1845
1849
1849
1849
1841
1849
1861
1857
1867
1865
1871
1877
1883
1885
1887
1893
1899
1897
1897
1893
1893
1897
1890
1893
1885
1885
1885
1890
1883
1883
1882
1886
1877
1883
1881
1885
1886
1887
1889
1876
1873
1873
1873
1872
1873
1875
1873
1873
1873
1872
1873
1881
1877
1874
1873
1877
1883
1877
1875
1874
1872
1869
1865
1865
1861
1861
1865
1866
1863
1861
1859
1859
1859
1857
1859
1858
1857
1857
1857
1851
1851
1857
1853
1858
1855
1853
1857
1859
1861
1863
1857
1861
1865
1865
1865
1867
1867
1867
1870
1867
1863
1869
1861
1865
1861
1867
1861
1857
1859
1857
1855
1851
1853
1853
1849
1845
1853
1849
1853
1849
1849
1853
1851
1851
1849
1849
1858
1853
1845
1845
1841
1845
1840
1842
1840
1842
1843
1841
1842
1837
1833
1840
1833
1840
1840
1840
1840
1841
1841
1843
1840
1851
1843
1841
1840
1843
1853
1843
1849
1847
1855
1851
1851
1849
1849
1851
1851
1855
1851
1853
1849
1853
1853
1851
1845
1843
1851
1841
1840
1837
1840
1840
1839
1840
1837
1837
1841
1840
1835
1837
1833
1833
1833
1829
1827
1835
1837
1837
1829
1833
1827
1837
1835
1840
1840
1833
1840
1837
1841
1840
1843
1859
1861
1861
1861
1867
1867
1874
1875
1873
1877
1885
1885
1889
1889
1889
1897
1893
1898
1904
1901
1899
1901
1899
1893
1894
1893
1889
1891
1887
1885
1885
1881
1877
1873
1872
1875
1873
1873
1872
1875
1879
1872
1873
1875
1874
1878
1888
1885
1887
1885
1890
1883
1877
1875
1877
1875
1882
1877
1872
1865
1877
1872
1869
1861
1853
1867
1863
1872
1861
1861
1867
1872
1869
1869
1867
1869
1872
1867
1861
1861
1869
1859
1861
1857
1857
1867
1865
1866
1867
1860
1859
1857
1857
1857
1857
1865
1865
1861
1861
1869
1869
1869
1867
1867
1869
1869
1871
1863
1857
1857
1861
1861
1857
1861
1861
1863
1859
1857
1853
1856
1857
1853
1854
1849
1849
1854
1849
1853
1849
1848
1843
1853
1853
1851
1849
1849
1843
1850
1847
1843
1853
1851
1853
1853
1845
1851
1853
1845
1845
1841
1840
1840
1833
1829
1834
1833
1833
1836
1827
1835
1835
1834
1837
1835
1837
1835
1837
1833
1835
1835
1838
1840
1840
1841
1841
1842
1841
1845
1843
1844
1853
1845
1849
1843
1845
1841
1843
1840
1841
1841
1845
1845
1840
1845
1837
1845
1840
1841
1841
1843
1845
1841
1851
1845
1840
1851
1845
1845
1851
1852
1857
1857
1865
1872
1869
1872
1873
1872
1873
1877
1877
1873
1877
1877
1879
1883
1885
1887
1891
1889
1891
1893
1891
1891
1893
1893
1893
1889
1889
1890
1891
1889
1885
1885
1889
1893
1893
1895
1889
1885
1891
1889
1889
1881
1883
1888
1877
1883
1881
1881
1885
1883
1885
1882
1881
1881
1879
1875
1874
1874
1872
1869
1867
1867
1861
1867
1865
1857
1853
1859
1867
1863
1859
1862
1861
1869
1867
1861
1858
1857
1866
1860
1857
1869
1859
1865
1863
1872
1872
1869
1873
1873
1872
1872
1869
1873
1873
1875
1872
1865
1874
1872
1869
1869
1867
1873
1869
1867
1865
1861
1867
1867
1865
1870
1861
1869
1867
1861
1865
1860
1859
1857
1856
1853
1855
1861
1861
1859
1856
1859
1857
1857
1859
1851
1857
1858
1853
1849
1842
1845
1849
1845
1843
1853
1841
1845
1841
1841
1840
1841
1845
1840
1840
1837
1840
1841
1835
1840
1840
1840
1845
1851
1845
1845
1846
1845
1845
1845
1849
1841
1853
1851
1843
1853
1849
1851
1851
1851
1851
1849
1853
1849
1851
1849
1843
1847
1845
1847
1845
1845
1853
1853
1851
1853
1853
1857
1859
1853
1849
1847
1853
1849
1841
1841
1845
1845
1841
1845
1851
1850
1853
1853
1858
1857
1861
1861
1867
1869
1872
1871
1875
1875
1885
1885
1889
1893
1890
1897
1889
1889
1897
1900
1889
1891
1885
1891
1889
1886
1888
1889
1885
1883
1889
1877
1879
1878
1885
1882
1877
1881
1882
1877
1881
1883
1885
1885
1890
1881
1877
1875
1877
1873
1872
1875
1873
1877
1878
1879
1875
1877
1883
1882
1879
1877
1877
1873
1873
1873
1872
1873
1873
1875
1877
1873
1873
1873
1873
1874
1872
1872
1872
1873
1873
1869
1869
1872
1869
1869
1867
1869
1867
1863
1865
1861
1867
1872
1869
1872
1867
1869
1867
1865
1865
1866
1860
1857
1867
1858
1859
1857
1861
1859
1859
1858
1861
1869
1865
1865
1857
1865
1867
1863
1858
1853
1858
1853
1849
1853
1851
1855
1861
1857
1851
1853
1851
1857
1857
1853
1853
1849
1851
1850
1854
1845
1853
1857
1851
1853
1855
1843
1853
1841
1843
1841
1843
1845
1845
1841
1839
1843
1841
1841
1841
1845
1840
1843
1845
1843
1842
1849
1851
1849
1849
1851
1845
1845
1849
1853
1841
1841
1851
1854
1851
1849
1843
1850
1853
1850
1847
1841
1850
1847
1845
1843
1843
1841
1840
1837
1835
1841
1840
1842
1842
1840
1841
1845
1845
1849
1843
1852
1853
1853
1857
1857
1857
1869
1867
1867
1865
1874
1873
1872
1873
1874
1875
1885
1882
1883
1881
1881
1885
1875
1877
1877
1877
1881
1881
1883
1883
1875
1887
1882
1883
1875
1881
1881
1881
1882
1877
1877
1885
1885
1883
1885
1881
1885
1885
1885
1886
1885
1885
1885
1885
1885
1875
1883
1883
1883
1885
1885
1887
1881
1881
1877
1877
1881
1889
1877
1872
1873
1872
1869
1867
1866
1861
1874
1867
1861
1861
1861
1869
1861
1858
1857
1859
1869
1861
1861
1857
1853
1858
1861
1857
1857
1861
1859
1858
1859
1866
1863
1865
1867
1865
1857
1859
1863
1859
1861
1859
1861
1869
1866
1865
1865
1865
1872
1865
1861
1859
1861
1861
1861
1869
1861
1857
1857
1857
1858
1853
1861
1851
1845
1841
1841
1837
1839
1840
1845
1842
1845
1845
1850
1849
1851
1861
1859
1857
1857
1857
1851
1856
1855
1859
1857
1857
1861
1861
1859
1865
1856
1857
1861
1855
1853
1851
1853
1843
1849
1853
1845
1843
1841
1842
1840
1840
1841
1845
1842
1841
1845
1843
1843
1845
1841
1845
1842
1849
1845
1843
1851
1849
1851
1851
1849
1849
1851
1853
1854
1849
1845
1850
1849
1849
1845
1845
1851
1849
1849
1845
1851
1853
1853
1851
1853
1853
1861
1859
1861
1866
1867
1867
1873
1872
1873
1877
1875
1881
1883
1881
1877
1881
1881
1885
1885
1881
1891
1889
1891
1893
1893
1897
1891
1897
1889
1883
1889
1889
1883
1850
1921
1931
1917
1853
1915
1936
1922
1899
1915
1917
1907
1909
1907
1905
1897
1894
1891
1883
1890
1882
1873
1875
1872
1874
1869
1865
1867
1866
1864
1866
1857
1863
1865
1859
1861
1859
1863
1866
1861
1867
1865
1872
1869
1867
1866
1861
1867
1867
1864
1865
1859
1871
1867
1873
1867
1867
1871
1872
1869
1872
1872
1881
1872
1869
1871
1869
1871
1869
1872
1869
1872
1873
1872
1869
1869
1865
1861
1867
1865
1857
1856
1853
1857
1849
1849
1857
1857
1857
1853
1853
1853
1853
1849
1851
1849
1850
1843
1849
1853
1851
1855
1857
1858
1857
1859
1858
1861
1857
1857
1857
1853
1859
1851
1861
1849
1849
1849
1850
1841
1841
1841
1843
1850
1853
1843
1845
1843
1849
1845
1841
1842
1843
1845
1849
1853
1849
1853
1845
1843
1841
1845
1853
1853
1849
1853
1853
1853
1855
1849
1853
1850
1845
1851
1843
1845
1845
1850
1851
1843
1845
1840
1845
1841
1840
1834
1835
1841
1837
1840
1837
1837
1842
1840
1835
1835
1833
1840
1837
1840
1835
1837
1840
1841
1843
1845
1843
1845
1842
1845
1843
1851
1855
1855
1861
1869
1873
1867
1877
1877
1872
1872
1881
1885
1885
1885
1889
1893
1899
1902
1893
1900
1904
1905
1907
1905
1904
1905
1904
1904
1901
1897
1898
1893
1891
1889
1885
1891
1883
1885
1881
1873
1885
1881
1873
1871
1872
1872
1873
1873
1869
1869
1872
1872
1869
1867
1867
1867
1864
1859
1861
1859
1865
1859
1858
1869
1867
1870
1866
1865
1859
1863
1869
1874
1865
1865
1869
1869
1867
1872
1873
1873
1877
1881
1881
1872
1875
1877
1877
1873
1873
1872
1875
1875
1877
1877
1875
1882
1872
1867
1867
1871
1867
1869
1861
1861
1858
1857
1857
1859
1854
1851
1851
1849
1850
1847
1849
1845
1849
1850
1845
1840
1841
1841
1841
1845
1849
1849
1849
1857
1853
1849
1856
1865
1865
1857
1857
1865
1859
1861
1861
1857
1866
1861
1867
1858
1858
1861
1841
1857
1857
1857
1851
1861
1857
1853
1841
1851
1849
1845
1837
1841
1841
1845
1849
1843
1843
1847
1851
1849
1849
1845
1853
1849
1840
1841
1841
1841
1843
1841
1845
1840
1843
1841
1843
1841
1843
1851
1853
1853
1849
1853
1853
1851
1845
1846
1841
1849
1849
1843
1845
1840
1845
1843
1841
1841
1841
1845
1843
1837
1845
1843
1849
1850
1851
1847
1849
1845
1850
1845
1849
1849
1851
1858
1863
1861
1857
1861
1863
1867
1867
1872
1883
1883
1877
1883
1885
1881
1885
1885
1885
1881
1891
1889
1889
1883
1885
1883
1882
1883
1875
1873
1877
1875
1873
1875
1872
1881
1881
1875
1877
1875
1877
1879
1877
1877
1873
1875
1872
1873
1881
1873
1873
1875
1872
1872
1869
1873
1873
1869
1867
1872
1872
1873
1869
1866
1859
1869
1869
1859
1861
1861
1866
1867
1865
1861
1862
1853
1857
1859
1857
1857
1863
1858
1859
1857
1857
1859
1857
1849
1849
1843
1853
1857
1845
1853
1853
1853
1849
1845
1847
1845
1849
1849
1843
1845
1843
1841
1849
1847
1853
1847
1851
1851
1851
1853
1853
1858
1856
1857
1858
1861
1859
1861
1857
1857
1857
1853
1853
1851
1849
1845
1849
1841
1845
1841
1843
1841
1847
1843
1850
1841
1845
1845
1849
1850
1849
1853
1857
1858
1853
1853
1855
1853
1845
1850
1853
1853
1853
1853
1855
1845
1845
1849
1841
1840
1837
1840
1841
1841
1843
1843
1849
1845
1849
1853
1843
1851
1853
1851
1843
1840
1849
1841
1842
1840
1840
1843
1850
1845
1843
1841
1841
1845
1835
1843
1840
1842
1841
1840
1842
1837
1841
1840
1840
1833
1829
1838
1840
1835
1835
1835
1841
1841
1840
1840
1840
1845
1845
1843
1849
1845
1857
1869
1865
1866
1866
1872
1877
1875
1873
1873
1875
1882
1884
1883
1881
1885
1891
1883
1885
1883
1883
1889
1889
1885
1883
1889
1891
1890
1885
1889
1890
1891
1889
1888
1885
1885
1885
1887
1886
1881
1885
1882
1875
1879
1873
1874
1874
1877
1872
1872
1873
1877
1872
1867
1867
1869
1867
1857
1865
1869
1869
1873
1870
1867
1865
1861
1869
1867
1869
1869
1872
1873
1867
1869
1872
1872
1867
1867
1865
1870
1865
1867
1857
1857
1861
1861
1869
1869
1869
1861
1866
1869
1857
1866
1858
1857
1857
1857
1858
1857
1857
1861
1859
1857
1851
1856
1859
1861
1863
1859
1861
1863
1857
1858
1857
1853
1851
1853
1853
1847
1853
1849
1847
1845
1841
1846
1841
1840
1841
1835
1841
1842
1840
1840
1835
1840
1841
1840
1842
1840
1840
1842
1843
1841
1840
1841
1845
1842
1841
1840
1845
1843
1849
1849
1850
1849
1859
1857
1857
1857
1861
1861
1855
1857
1851
1853
1858
1855
1857
1855
1859
1857
1857
1857
1863
1849
1857
1851
1849
1845
1853
1855
1845
1845
1840
1845
1849
1841
1843
1841
1841
1842
1840
1840
1835
1841
1842
1835
1840
1837
1837
1837
1840
1837
1829
1829
1833
1827
1829
1833
1833
1831
1829
1840
1833
1837
1841
1845
1845
1845
1849
1858
1861
1869
1869
1872
1873
1875
1877
1881
1881
1891
1893
1891
1897
1893
1893
1893
1893
1898
1893
1898
1897
1889
1891
1889
1889
1883
1883
1881
1901
1881
1877
1877
1875
1877
1875
1873
1869
1872
1872
1872
1872
1873
1869
1872
1873
1873
1875
1871
1869
1872
1865
1866
1859
1859
1865
1861
1853
1857
1857
1857
1859
1857
1858
1859
1861
1871
1861
1865
1867
1867
1859
1865
1856
1863
1863
1857
1865
1861
1861
1861
1865
1859
1861
1866
1861
1859
1858
1861
1865
1861
1859
1857
1853
1849
1849
1845
1849
1845
1851
1857
1858
1858
1858
1851
1858
1851
1861
1853
1853
1857
1853
1853
1847
1841
1850
1849
1853
1852
1851
1849
1845
1843
1845
1843
1850
1859
1853
1853
1851
1857
1863
1859
1861
1859
1859
1857
1859
1857
1851
1851
1849
1847
1841
1846
1847
1843
1841
1844
1843
1849
1845
1845
1840
1841
1842
1840
1841
1840
1840
1843
1845
1849
1843
1845
1845
1845
1842
1845
1841
1845
1841
1849
1851
1849
1863
1851
1849
1843
1853
1853
1851
1853
1856
1853
1856
1862
1857
1843
1849
1853
1854
1849
1849
1853
1845
1851
1853
1851
1850
1853
1853
1845
1845
1843
1845
1849
1850
1850
1850
1849
1849
1845
1840
1841
1843
1849
1843
1843
1850
1851
1872
1857
1857
1865
1873
1869
1872
1872
1873
1874
1875
1877
1877
1881
1885
1881
1883
1881
1877
1877
1877
1883
1877
1875
1877
1877
1875
1872
1873
1873
1879
1873
1872
1873
1881
1873
1883
1875
1877
1877
1873
1873
1877
1874
1875
1872
1869
1869
1871
1872
1869
1867
1865
1865
1867
1861
1869
1861
1865
1865
1861
1872
1857
1856
1859
1859
1853
1849
1857
1859
1861
1861
1861
1865
1866
1867
1869
1869
1872
1872
1872
1873
1874
1873
1881
1883
1881
1875
1881
1882
1877
1873
1873
1873
1873
1873
1873
1869
1872
1873
1873
1874
1872
1872
1865
1865
1863
1865
1857
1857
1861
1856
1855
1853
1856
1853
1847
1851
1842
1850
1849
1847
1845
1843
1845
1856
1851
1842
1849
1853
1850
1843
1842
1841
1841
1841
1840
1837
1835
1841
1837
1835
1833
1837
1840
1840
1841
1840
1840
1845
1841
1841
1842
1843
1847
1845
1845
1843
1841
1843
1849
1849
1841
1846
1845
1849
1849
1845
1849
1853
1859
1857
1859
1857
1861
1861
1861
1859
1861
1861
1858
1857
1853
1858
1857
1851
1851
1851
1851
1854
1853
1858
1845
1845
1845
1843
1841
1841
1841
1849
1843
1851
1849
1853
1851
1859
1857
1857
1857
1863
1867
1867
1866
1867
1872
1873
1873
1867
1874
1883
1877
1881
1879
1877
1885
1883
1883
1877
1885
1889
1885
1883
1878
1877
1875
1873
1873
1873
1867
1869
1859
1867
1867
1869
1875
1872
1869
1873
1869
1872
1869
1865
1865
1865
1872
1869
1872
1869
1872
1873
1873
1872
1867
1872
1873
1874
1873
1873
1872
1873
1869
1865
1865
1869
1872
1869
1868
1865
1857
1861
1866
1859
1857
1859
1857
1861
1853
1857
1857
1861
1865
1859
1857
1857
1865
1859
1859
1856
1861
1857
1853
1861
1857
1859
1867
1859
1853
1857
1859
1857
1861
1859
1857
1857
1859
1865
1861
1857
1857
1867
1861
1857
1858
1859
1859
1861
1859
1857
1861
1867
1861
1865
1865
1861
1861
1859
1861
1859
1860
1865
1859
1861
1859
1857
1857
1857
1853
1851
1849
1857
1857
1858
1853
1847
1855
1857
1851
1853
1845
1851
1851
1853
1853
1841
1851
1850
1842
1841
1843
1841
1843
1842
1840
1840
1841
1841
1841
1840
1840
1843
1841
1844
1840
1841
1841
1843
1847
1843
1842
1845
1845
1841
1841
1841
1845
1845
1849
1845
1845
1851
1853
1845
1849
1853
1849
1855
1845
1850
1849
1851
1851
1853
1843
1853
1859
1853
1859
1857
1861
1865
1867
1869
1867
1873
1875
1877
1879
1881
1881
1888
1885
1885
1890
1890
1889
1901
1891
1891
1893
1897
1899
1893
1893
1883
1893
1890
1895
1893
1883
1891
1883
1883
1886
1883
1884
1881
1881
1881
1883
1881
1882
1881
1877
1877
1879
1877
1875
1877
1875
1882
1889
1881
1873
1873
1875
1872
1873
1872
1869
1867
1865
1865
1866
1857
1865
1869
1865
1863
1869
1869
1865
1865
1864
1857
1871
1872
1869
1872
1867
1877
1873
1873
1874
1873
1874
1872
1871
1865
1869
1872
1871
1869
1867
1869
1873
1872
1873
1867
1872
1873
1872
1872
1871
1872
1869
1865
1867
1865
1863
1867
1869
1861
1865
1861
1869
1872
1865
1866
1859
1859
1861
1861
1858
1857
1861
1859
1861
1857
1861
1865
1861
1856
1861
1857
1861
1861
1857
1853
1857
1861
1857
1858
1851
1855
1856
1853
1851
1845
1847
1855
1850
1849
1849
1843
1845
1849
1843
1853
1853
1851
1856
1845
1853
1857
1857
1857
1851
1853
1849
1851
1853
1849
1857
1853
1859
1853
1857
1849
1854
1855
1851
1851
1851
1845
1853
1847
1845
1843
1843
1843
1843
1846
1849
1845
1849
1849
1849
1843
1850
1851
1853
1850
1851
1845
1851
1857
1861
1859
1867
1873
1869
1872
1874
1887
1877
1885
1889
1881
1883
1889
1890
1889
1893
1893
1885
1897
1899
1891
1891
1901
1899
1902
1901
1899
1904
1904
1901
1897
1904
1903
1899
1895
1897
1889
1895
1897
1893
1889
1889
1893
1891
1889
1889
1885
1889
1889
1885
1887
1885
1889
1889
1887
1885
1881
1881
1883
1885
1882
1882
1891
1887
1887
1885
1883
1885
1883
1883
1877
1873
1874
1877
1873
1872
1869
1873
1872
1869
1872
1867
1872
1872
1872
1867
1869
1872
1872
1872
1872
1873
1878
1873
1873
1873
1872
1873
1873
1872
1872
1872
1877
1875
1873
1875
1877
1879
1887
1873
1872
1873
1877
1873
1873
1871
1872
1867
1871
1861
1869
1867
1873
1867
1859
1865
1857
1857
1858
1859
1857
1853
1857
1858
1858
1849
1858
1857
1857
1855
1856
1851
1856
1857
1857
1855
1858
1859
1858
1859
1859
1861
1863
1867
1865
1861
1861
1865
1867
1866
1863
1857
1859
1861
1857
1858
1851
1857
1861
1857
1853
1853
1858
1857
1855
1851
1845
1853
1855
1853
1857
1853
1856
1856
1853
1861
1859
1851
1858
1859
1857
1856
1855
1857
1851
1853
1851
1861
1857
1857
1861
1857
1857
1857
1857
1861
1863
1872
1872
1874
1873
1877
1878
1881
1885
1889
1889
1897
1901
1906
1904
1904
1911
1905
1909
1913
1914
1909
1913
1905
1904
1904
1905
1905
1905
1904
1899
1906
1899
1901
1891
1889
1888
1889
1894
1889
1885
1889
1889
1885
1885
1883
1890
1890
1889
1890
1885
1897
1890
1888
1889
1885
1889
1889
1889
1885
1877
1889
1892
1889
1889
1885
1889
1889
1885
1881
1877
1873
1875
1877
1877
1877
1883
1883
1883
1881
1883
1885
1891
1881
1885
1877
1883
1881
1885
1881
1883
1883
1875
1885
1889
1885
1889
1888
1885
1881
1883
1883
1887
1882
1874
1872
1877
1875
1882
1872
1874
1873
1872
1873
1869
1869
1869
1867
1871
1869
1863
1859
1867
1857
1861
1857
1861
1865
1869
1866
1867
1865
1873
1872
1872
1872
1869
1869
1869
1865
1865
1867
1869
1865
1869
1867
1872
1867
1867
1869
1867
1865
1869
1865
1864
1857
1861
1857
1856
1857
1858
1861
1869
1861
1857
1853
1851
1851
1841
1843
1843
1851
1851
1851
1855
1847
1856
1853
1853
1851
1841
1850
1849
1841
1844
1849
1847
1853
1851
1849
1846
1849
1849
1849
1847
1853
1847
1851
1857
1851
1853
1851
1859
1862
1865
1869
1872
1883
1883
1885
1883
1886
1894
1897
1899
1901
1904
1910
1905
1905
1905
1906
1913
1915
1915
1917
1921
1929
1925
1923
1925
1930
1929
1930
1929
1923
1925
1921
1923
1923
1922
1925
1925
1915
1919
1915
1909
1913
1913
1905
1901
1906
1905
1909
1905
1904
1906
1905
1905
1903
1898
1899
1899
1897
1899
1891
1901
1897
1897
1898
1891
1893
1893
1901
1891
1888
1888
1885
1883
1889
1885
1887
1889
1891
1893
1889
1890
1893
1889
1883
1887
1891
1893
1893
1893
1889
1891
1897
1891
1893
1889
1893
1889
1889
1890
1885
1885
1887
1889
1885
1882
1883
1889
1877
1877
1877
1885
1885
1885
1885
1877
1873
1877
1873
1877
1873
1877
1875
1877
1881
1881
1881
1889
1885
1889
1878
1885
1889
1883
1883
1885
1875
1873
1869
1872
1865
1869
1875
1867
1869
1872
1872
1869
1869
1865
1861
1861
1869
1862
1857
1861
1867
1865
1862
1859
1859
1857
1865
1865
1859
1859
1867
1869
1869
1867
1869
1869
1865
1861
1865
1857
1857
1857
1856
1853
1845
1849
1857
1851
1849
1845
1841
1845
1853
1853
1843
1846
1853
1851
1853
1855
1857
1859
1853
1849
1844
1843
1849
1849
1849
1849
1857
1857
1863
1861
1861
1869
1871
1872
1873
1875
1877
1883
1889
1895
1891
1897
1904
1904
1905
1906
1913
1914
1917
1921
1921
1931
1936
1936
1931
1929
1927
1933
1933
1929
1930
1931
1935
1925
1927
1923
1929
1925
1935
1925
1921
1923
1925
1925
1923
1915
1921
1915
1917
1919
1913
1917
1921
1917
1915
1911
1909
1905
1905
1904
1906
1904
1901
1902
1899
1893
1897
1899
1899
1891
1890
1888
1889
1890
1891
1889
1889
1899
1899
1901
1891
1897
1897
1901
1901
1891
1889
1891
1893
1887
1885
1889
1898
1897
1897
1897
1898
1904
1904
1897
1898
1897
1901
1897
1893
1890
1883
1891
1885
1889
1885
1889
1897
1883
1883
1877
1875
1877
1873
1873
1872
1872
1873
1874
1869
1869
1872
1869
1869
1872
1869
1865
1869
1869
1865
1859
1861
1867
1869
1859
1859
1865
1872
1872
1872
1873
1865
1869
1872
1869
1866
1861
1853
1865
1865
1867
1865
1867
1867
1869
1861
1863
1866
1857
1857
1869
1857
1859
1853
1859
1851
1859
1859
1863
1857
1857
1859
1857
1857
1856
1853
1851
1853
1857
1849
1849
1849
1851
1843
1849
1845
1844
1853
1855
1850
1850
1845
1853
1851
1849
1851
1853
1856
1857
1854
1849
1849
1851
1857
1856
1849
1855
1861
1861
1851
1855
1855
1859
1868
1866
1869
1872
1875
1873
1882
1885
1889
1898
1901
1899
1904
1905
1913
1917
1917
1920
1923
1929
1931
1936
1937
1938
1938
1945
1937
1931
1936
1936
1930
1930
1925
1915
1917
1917
1909
1909
1907
1909
1907
1906
1906
1906
1906
1905
1905
1904
1901
1907
1909
1913
1907
1905
1909
1904
1906
1905
1905
1913
1917
1909
1905
1904
1907
1905
1909
1906
1909
1913
1905
1907
1903
1901
1904
1901
1893
1893
1898
1891
1887
1891
1891
1877
1885
1883
1877
1873
1882
1883
1882
1877
1881
1881
1885
1891
1885
1883
1887
1889
1890
1886
1877
1875
1886
1883
1877
1873
1872
1881
1881
1877
1877
1889
1890
1885
1887
1904
1889
1889
1885
1883
1881
1875
1885
1885
1877
1875
1875
1885
1881
1875
1869
1869
1873
1872
1872
1869
1872
1873
1873
1875
1869
1872
1873
1872
1872
1867
1866
1869
1869
1861
1865
1870
1869
1865
1859
1859
1857
1859
1857
1849
1849
1843
1851
1849
1846
1841
1840
1841
1841
1841
1840
1843
1841
1841
1843
1840
1839
1845
1843
1849
1853
1851
1861
1861
1862
1866
1861
1865
1867
1866
1859
1857
1859
1857
1851
1855
1850
1849
1849
1853
1849
1845
1857
1849
1853
1851
1849
1857
1851
1857
1861
1869
1872
1873
1877
1881
1885
1903
1904
1907
1905
1910
1921
1925
1933
1929
1929
1933
1936
1936
1929
1933
1936
1934
1933
1933
1931
1931
1927
1933
1929
1930
1934
1930
1925
1929
1933
1931
1933
1929
1925
1921
1923
1922
1917
1915
1917
1922
1915
1913
1916
1909
1905
1905
1901
1904
1898
1901
1897
1897
1901
1897
1898
1899
1901
1899
1897
1905
1901
1899
1901
1901
1904
1899
1901
1897
1891
1901
1901
1891
1901
1897
1897
1893
1899
1893
1889
1889
1893
1890
1883
1885
1893
1893
1889
1889
1891
1889
1895
1893
1893
1891
1893
1891
1885
1881
1887
1890
1889
1890
1885
1877
1885
1875
1873
1873
1872
1873
1872
1869
1867
1861
1865
1868
1866
1853
1853
1859
1857
1857
1856
1849
1851
1853
1853
1850
1853
1851
1849
1856
1854
1857
1857
1858
1855
1856
1851
1857
1858
1857
1851
1847
1851
1849
1845
1843
1849
1846
1841
1843
1845
1845
1850
1853
1845
1843
1841
1841
1859
1845
1843
1840
1845
1841
1840
1842
1845
1845
1850
1845
1850
1846
1851
1853
1853
1845
1845
1849
1851
1843
1841
1840
1841
1841
1841
1841
1840
1839
1837
1837
1835
1829
1837
1839
1833
1832
1833
1833
1829
1833
1825
1826
1833
1833
1833
1841
1841
1843
1857
1861
1867
1872
1883
1889
1895
1899
1905
1905
1915
1922
1925
1929
1937
1945
1938
1939
1945
1945
1939
1945
1945
1941
1941
1941
1943
1937
1936
1938
1938
1936
1937
1936
1936
1935
1933
1931
1925
1933
1933
1927
1929
1927
1931
1929
1923
1925
1917
1921
1913
1917
1913
1913
1909
1907
1905
1904
1901
1902
1898
1891
1889
1885
1893
1891
1883
1885
1893
1891
1885
1893
1875
1885
1887
1889
1889
1885
1886
1885
1877
1861
1879
1877
1879
1881
1877
1877
1872
1877
1877
1875
1873
1877
1875
1879
1881
1883
1879
1885
1877
1881
1875
1873
1873
1872
1874
1872
1873
1873
1875
1872
1872
1873
1875
1881
1873
1873
1872
1872
1865
1869
1865
1862
1861
1859
1861
1857
1859
1857
1861
1855
1853
1853
1853
1851
1857
1851
1849
1853
1853
1851
1853
1845
1841
1842
1841
1840
1841
1853
1851
1849
1857
1849
1853
1856
1857
1857
1853
1849
1857
1858
1857
1856
1859
1857
1857
1861
1859
1857
1860
1856
1851
1851
1851
1843
1845
1841
1840
1839
1840
1850
1841
1842
1841
1844
1841
1840
1840
1840
1837
1837
1824
1829
1826
1825
1819
1825
1819
1829
1825
1826
1825
1823
1821
1817
1823
1821
1817
1823
1829
1829
1833
1834
1835
1840
1841
1853
1851
1857
1872
1873
1875
1886
1893
1891
1897
1906
1909
1913
1913
1922
1923
1922
1925
1925
1930
1923
1929
1931
1933
1937
1933
1927
1931
1925
1923
1921
1915
1914
1913
1913
1907
1899
1899
1904
1904
1903
1893
1901
1893
1897
1893
1893
1891
1901
1904
1897
1891
1898
1893
1893
1891
1893
1897
1897
1897
1901
1898
1897
1897
1891
1891
1890
1885
1889
1885
1883
1874
1872
1871
1872
1871
1872
1877
1875
1874
1877
1877
1873
1874
1873
1873
1872
1875
1872
1872
1869
1865
1872
1867
1869
1870
1870
1867
1872
1872
1872
1869
1872
1873
1872
1873
1872
1870
1873
1875
1873
1867
1872
1870
1861
1859
1857
1857
1859
1861
1861
1851
1858
1862
1858
1859
1857
1857
1857
1851
1853
1849
1843
1853
1843
1840
1833
1835
1835
1831
1829
1829
1833
1829
1838
1835
1833
1833
1840
1835
1837
1834
1840
1841
1840
1835
1833
1833
1840
1840
1840
1837
1840
1840
1837
1840
1833
1837
1839
1835
1840
1835
1840
1841
1835
1837
1833
1835
1837
1841
1841
1835
1833
1841
1835
1829
1825
1825
1825
1827
1835
1825
1821
1824
1819
1825
1821
1821
1827
1826
1829
1829
1829
1829
1831
1829
1821
1825
1833
1833
1829
1828
1837
1841
1842
1845
1842
1845
1855
1859
1861
1859
1872
1875
1883
1886
1893
1897
1906
1905
1905
1905
1912
1915
1922
1919
1919
1925
1921
1915
1921
1917
1917
1921
1915
1915
1905
1907
1905
1906
1905
1904
1907
1901
1901
1897
1893
1893
1899
1887
1889
1883
1890
1885
1891
1893
1885
1883
1883
1874
1872
1872
1875
1872
1869
1869
1862
1861
1869
1867
1859
1857
1863
1861
1857
1856
1858
1858
1861
1863
1859
1851
1857
1863
1865
1867
1867
1872
1872
1869
1867
1861
1862
1872
1867
1865
1861
1857
1861
1857
1855
1853
1856
1861
1865
1859
1856
1857
1857
1858
1854
1853
1851
1853
1855
1853
1853
1853
1858
1851
1851
1853
1861
1857
1857
1853
1845
1846
1849
1843
1845
1847
1849
1853
1843
1841
1840
1840
1835
1840
1840
1835
1839
1840
1837
1837
1840
1835
1835
1840
1840
1837
1825
1841
1842
1837
1833
1840
1837
1837
1835
1827
1837
1835
1837
1833
1829
1829
1837
1837
1829
1831
1827
1831
1833
1829
1825
1829
1835
1837
1829
1829
1834
1829
1829
1829
1827
1825
1827
1833
1830
1821
1821
1821
1821
1821
1817
1826
1825
1829
1829
1821
1825
1829
1827
1829
1825
1825
1829
1826
1825
1821
1825
1829
1829
1834
1837
1840
1845
1849
1853
1855
1853
1859
1867
1867
1872
1877
1885
1892
1889
1898
1901
1899
1904
1907
1904
1911
1913
1913
1915
1909
1909
1914
1909
1907
1901
1901
1904
1904
1901
1897
1893
1897
1889
1885
1885
1877
1885
1883
1905
1885
1889
1893
1889
1889
1889
1897
1901
1897
1901
1893
1893
1891
1890
1885
1888
1883
1890
1885
1882
1874
1872
1873
1869
1867
1861
1867
1867
1865
1867
1867
1869
1872
1869
1869
1866
1867
1873
1873
1871
1861
1867
1867
1865
1861
1859
1861
1865
1869
1866
1861
1872
1869
1857
1859
1851
1856
1857
1853
1851
1853
1854
1857
1853
1853
1843
1843
1841
1849
1847
1843
1842
1853
1856
1853
1851
1851
1857
1857
1851
1853
1857
1857
1851
1849
1849
1845
1853
1845
1845
1843
1845
1849
1850
1855
1843
1841
1850
1843
1843
1840
1840
1841
1840
1841
1839
1835
1835
1837
1835
1834
1837
1840
1833
1837
1829
1827
1834
1835
1825
1825
1829
1837
1835
1835
1837
1837
1841
1840
1840
1841
1833
1840
1840
1827
1827
1825
1827
1825
1829
1827
1825
1833
1827
1829
1826
1833
1829
1835
1833
1833
1829
1837
1825
1827
1833
1833
1840
1835
1835
1835
1831
1837
1829
1829
1829
1825
1835
1837
1842
1843
1843
1855
1851
1857
1856
1861
1871
1869
1873
1875
1881
1893
1897
1895
1891
1901
1904
1905
1906
1905
1909
1909
1915
1856
1934
1936
1923
1856
1933
1939
1927
1892
1921
1925
1917
1907
1920
1906
1901
1905
1898
1889
1885
1881
1873
1872
1869
1869
1865
1865
1865
1865
1857
1861
1857
1859
1866
1865
1861
1861
1853
1861
1857
1851
1857
1843
1856
1851
1857
1856
1857
1865
1861
1863
1865
1859
1857
1861
1865
1856
1861
1865
1861
1869
1866
1867
1869
1861
1865
1865
1865
1872
1872
1871
1869
1869
1873
1865
1863
1869
1861
1865
1864
1859
1854
1853
1859
1859
1861
1853
1857
1855
1857
1859
1857
1859
1872
1867
1867
1861
1861
1865
1861
1857
1859
1856
1861
1861
1849
1853
1843
1853
1853
1849
1851
1855
1851
1850
1850
1845
1840
1840
1842
1841
1840
1840
1837
1835
1837
1835
1833
1837
1837
1829
1834
1825
1829
1829
1835
1829
1827
1827
1829
1825
1834
1837
1840
1840
1840
1837
1837
1840
1837
1833
1829
1825
1833
1829
1827
1825
1827
1833
1829
1834
1819
1825
1829
1826
1819
1823
1821
1825
1827
1825
1825
1827
1827
1821
1832
1825
1829
1834
1835
1833
1829
1837
1833
1829
1825
1825
1827
1834
1833
1835
1842
1842
1853
1857
1863
1861
1861
1867
1872
1873
1877
1877
1883
1890
1888
1893
1897
1899
1899
1901
1901
1896
1901
1904
1904
1899
1897
1904
1889
1893
1899
1891
1889
1891
1885
1885
1881
1891
1881
1875
1877
1873
1875
1877
1883
1881
1875
1883
1883
1881
1882
1875
1879
1882
1885
1885
1881
1888
1887
1885
1881
1877
1885
1875
1882
1875
1875
1873
1893
1869
1865
1865
1869
1866
1865
1866
1859
1865
1861
1866
1867
1857
1863
1865
1872
1869
1872
1867
1872
1872
1867
1861
1869
1869
1859
1861
1859
1869
1865
1863
1859
1865
1869
1867
1869
1863
1858
1861
1858
1853
1850
1845
1851
1853
1849
1850
1851
1847
1843
1845
1841
1835
1842
1841
1840
1843
1840
1840
1849
1843
1841
1843
1843
1845
1841
1840
1841
1841
1841
1842
1845
1840
1845
1850
1849
1847
1845
1849
1849
1843
1843
1841
1841
1842
1841
1840
1840
1843
1841
1847
1849
1843
1850
1849
1845
1845
1841
1841
1841
1841
1841
1837
1839
1840
1841
1837
1829
1835
1841
1837
1840
1839
1840
1840
1840
1840
1835
1841
1841
1841
1833
1837
1840
1845
1840
1840
1840
1840
1841
1840
1837
1837
1840
1845
1843
1853
1861
1865
1872
1872
1879
1877
1877
1883
1889
1887
1883
1904
1893
1891
1889
1891
1893
1901
1899
1893
1895
1901
1901
1893
1898
1889
1893
1891
1891
1891
1889
1893
1897
1897
1901
1891
1901
1901
1897
1891
1889
1897
1897
1897
1893
1891
1894
1893
1885
1885
1885
1882
1877
1875
1881
1877
1872
1875
1861
1859
1859
1857
1857
1853
1859
1851
1857
1845
1849
1849
1845
1849
1853
1849
1853
1857
1857
1861
1861
1859
1857
1861
1865
1863
1859
1859
1861
1869
1872
1869
1859
1868
1861
1863
1861
1859
1865
1863
1863
1861
1867
1872
1873
1873
1872
1870
1870
1869
1867
1861
1859
1859
1865
1851
1866
1853
1857
1861
1853
1849
1841
1843
1844
1843
1845
1840
1841
1842
1841
1841
1837
1841
1841
1840
1840
1840
1842
1843
1843
1845
1845
1850
1851
1853
1849
1843
1843
1845
1841
1840
1839
1840
1843
1841
1840
1837
1840
1837
1840
1837
1835
1833
1837
1840
1835
1831
1840
1841
1840
1835
1837
1837
1833
1837
1840
1833
1837
1837
1840
1833
1829
1837
1833
1838
1837
1833
1833
1837
1839
1837
1829
1837
1843
1837
1837
1835
1837
1835
1835
1840
1841
1845
1859
1857
1861
1867
1869
1873
1875
1885
1889
1891
1898
1901
1901
1907
1907
1915
1917
1917
1913
1913
1921
1924
1921
1914
1907
1917
1919
1918
1917
1905
1905
1904
1901
1899
1901
1905
1905
1904
1901
1901
1901
1901
1893
1894
1890
1893
1897
1897
1897
1901
1904
1901
1893
1895
1893
1898
1897
1893
1891
1889
1897
1893
1883
1889
1890
1889
1889
1881
1877
1875
1879
1877
1874
1871
1872
1873
1874
1872
1872
1872
1872
1877
1871
1867
1869
1874
1873
1869
1872
1872
1872
1874
1879
1872
1872
1877
1875
1877
1867
1869
1873
1872
1867
1867
1869
1871
1865
1861
1861
1856
1859
1859
1865
1855
1857
1857
1851
1849
1851
1853
1857
1853
1853
1845
1849
1853
1851
1853
1847
1847
1853
1853
1853
1851
1857
1859
1859
1858
1858
1851
1857
1859
1857
1857
1853
1861
1857
1853
1849
1851
1849
1849
1849
1843
1843
1843
1849
1841
1843
1845
1851
1849
1851
1845
1841
1849
1841
1843
1840
1840
1845
1845
1845
1850
1851
1857
1853
1851
1853
1853
1853
1845
1845
1845
1850
1843
1845
1849
1845
1842
1849
1845
1841
1841
1841
1840
1840
1839
1834
1835
1835
1835
1835
1840
1840
1851
1847
1851
1861
1859
1871
1874
1875
1881
1887
1891
1889
1893
1897
1901
1909
1914
1909
1909
1913
1920
1917
1915
1909
1913
1913
1913
1913
1915
1907
1915
1917
1914
1913
1913
1926
1913
1917
1917
1917
1922
1921
1913
1909
1909
1922
1915
1910
1907
1905
1906
1904
1897
1899
1885
1891
1893
1891
1883
1885
1889
1890
1885
1885
1881
1889
1885
1882
1881
1877
1882
1881
1877
1877
1877
1877
1875
1885
1877
1877
1881
1881
1885
1877
1881
1887
1885
1885
1889
1881
1883
1879
1879
1874
1872
